0,1,2,3,4,5,6,7,8,9,10,11,12,13,14,15,16,17,18,19,20,21,22,23,24,25,26,27,28,29,30,31,32,33,34,35,36,37,38,39,40,41,42,43,44,45,46,47,48,49,50,51,52,53,54,55,56,57,58,59,60,61,62,63,64,65,66,67,68,69,70,71,72,73,74,75,76,77,78,79,80,81,82,83,84,85,86,87,88,89,90,91,92,93,94,95,96,97,98,99,100,101,102,103,104,105,106,107,108,109,110,111,112,113,114,115,116,117,118,119,120,121,122,123,124,125,126,127,128,129,130,131,132,133,134,135,136,137,138,139,140,141,142,143,144,145,146,147,148,149,150,151,152,153,154,155,156,157,158,159,160,161,162,163,164,165,166,167,168,169,170,171,172,173,174,175,176,177,178,179,180,181,182,183,184,185,186,187,188
0.6913265585899353,0.5739796161651611,0.3443877696990967,0.13265305757522583,0.06632652878761292,0.06632652878761292,0.05612244829535484,0.040816325694322586,0.03316326439380646,0.007653061300516128,0.04846938699483872,0.07653061300516129,0.07908163219690323,0.12755101919174194,0.12244898080825804,0.1785714328289032,0.20918367803096768,0.2321428507566452,0.23724490404129028,0.29846939444541926,0.2729591727256775,0.31887754797935486,0.29591837525367737,0.2933673560619354,0.24489796161651609,0.20663265883922577,0.2142857164144516,0.16326530277729034,0.15561224520206451,0.14540816843509674,0.125,0.11989796161651611,0.13520407676696777,0.13775509595870972,0.12244898080825804,0.15816326439380643,0.1785714328289032,0.1964285671710968,0.18112245202064517,0.18367347121238708,0.1913265287876129,0.20663265883922577,0.18367347121238708,0.21683673560619357,0.34948980808258057,0.5102040767669678,0.5867347121238708,0.8903061151504515,0.9846938848495485,1.0,0.8826530575752257,0.6479591727256775,0.2933673560619354,0.10969387739896774,0.08163265138864517,0.05357142910361289,0.005102040711790323,0.02806122414767742,0.020408162847161293,0.01275510247796774,0.0,0.02806122414767742,0.01785714365541935,0.03826530650258064,0.04591836780309677,0.022959183901548386,0.06377550959587097,0.09948979318141936,0.11989796161651611,0.0,0.0,0.0,0.0,0.0,0.0,0.0,0.0,0.0,0.0,0.0,0.0,0.0,0.0,0.0,0.0,0.0,0.0,0.0,0.0,0.0,0.0,0.0,0.0,0.0,0.0,0.0,0.0,0.0,0.0,0.0,0.0,0.0,0.0,0.0,0.0,0.0,0.0,0.0,0.0,0.0,0.0,0.0,0.0,0.0,0.0,0.0,0.0,0.0,0.0,0.0,0.0,0.0,0.0,0.0,0.0,0.0,0.0,0.0,0.0,0.0,0.0,0.0,0.0,0.0,0.0,0.0,0.0,0.0,0.0,0.0,0.0,0.0,0.0,0.0,0.0,0.0,0.0,0.0,0.0,0.0,0.0,0.0,0.0,0.0,0.0,0.0,0.0,0.0,0.0,0.0,0.0,0.0,0.0,0.0,0.0,0.0,0.0,0.0,0.0,0.0,0.0,0.0,0.0,0.0,0.0,0.0,0.0,0.0,0.0,0.0,0.0,0.0,0.0,0.0,0.0,0.0,0.0,0.0,0.0
1.0,0.5757575631141664,0.05723905563354492,0.11784511804580688,0.12121212482452393,0.11784511804580688,0.1111111119389534,0.12121212482452393,0.12121212482452393,0.11447811126708984,0.11784511804580688,0.11447811126708984,0.1111111119389534,0.1111111119389534,0.12121212482452393,0.10774410516023636,0.12121212482452393,0.12121212482452393,0.11784511804580688,0.1111111119389534,0.12457912415266036,0.11784511804580688,0.11784511804580688,0.11447811126708984,0.11784511804580688,0.12457912415266036,0.11447811126708984,0.1111111119389534,0.11447811126708984,0.10437710583209991,0.1111111119389534,0.10437710583209991,0.10774410516023636,0.09764309972524643,0.10774410516023636,0.11447811126708984,0.1279461234807968,0.14478114247322083,0.16161616146564484,0.17171716690063477,0.17845118045806885,0.17845118045806885,0.1919191926717758,0.1750841736793518,0.1818181872367859,0.16835017502307892,0.1885521858930588,0.1750841736793518,0.1818181872367859,0.16835017502307892,0.16498316824436188,0.16161616146564484,0.16161616146564484,0.14814814925193787,0.16161616146564484,0.14141413569450378,0.1515151560306549,0.1380471438169479,0.1380471438169479,0.13131313025951383,0.1515151560306549,0.14814814925193787,0.14141413569450378,0.1279461234807968,0.14814814925193787,0.1380471438169479,0.13131313025951383,0.1380471438169479,0.14141413569450378,0.14814814925193787,0.16835017502307892,0.17171716690063477,0.1885521858930588,0.20202019810676572,0.19865319132804873,0.20202019810676572,0.19865319132804873,0.1885521858930588,0.17845118045806885,0.1919191926717758,0.16498316824436188,0.13131313025951383,0.1111111119389534,0.12121212482452393,0.11784511804580688,0.11447811126708984,0.10101009905338287,0.10101009905338287,0.13131313025951383,0.11784511804580688,0.08417508751153947,0.033670034259557724,0.0,0.23569023609161377,0.7003366947174072,0.9393939375877379,0.3164983093738556,0.020202020183205605,0.09427609294652937,0.08417508751153947,0.09090909361839294,0.09427609294652937,0.09090909361839294,0.08417508751153947,0.07407407462596893,0.07407407462596893,0.07744107395410538,0.08417508751153947,0.07744107395410538,0.08417508751153947,0.07744107395410538,0.07407407462596893,0.07407407462596893,0.08417508751153947,0.0,0.0,0.0,0.0,0.0,0.0,0.0,0.0,0.0,0.0,0.0,0.0,0.0,0.0,0.0,0.0,0.0,0.0,0.0,0.0,0.0,0.0,0.0,0.0,0.0,0.0,0.0,0.0,0.0,0.0,0.0,0.0,0.0,0.0,0.0,0.0,0.0,0.0,0.0,0.0,0.0,0.0,0.0,0.0,0.0,0.0,0.0,0.0,0.0,0.0,0.0,0.0,0.0,0.0,0.0,0.0,0.0,0.0,0.0,0.0,0.0,0.0,0.0,0.0,0.0,0.0,0.0,0.0,0.0,0.0,0.0,0.0,0.0,0.0,0.0
0.9486653208732606,0.975359320640564,0.5379877090454102,0.10266940295696259,0.04312115162611008,0.09240246564149857,0.10472279042005538,0.08624230325222014,0.07392197102308273,0.07392197102308273,0.07597535848617554,0.06776180863380432,0.06160164251923561,0.06160164251923561,0.06570842117071152,0.051334701478481286,0.041067760437726974,0.04312115162611008,0.04722792655229568,0.03285421058535576,0.02258726954460144,0.01642710529267788,0.018480492755770683,0.012320328503847122,0.0,0.00821355264633894,0.010266940109431744,0.00410677632316947,0.002053388161584735,0.018480492755770683,0.03490759804844856,0.04928131401538849,0.06776180863380432,0.09445585310459137,0.1190965101122856,0.12731006741523743,0.13347022235393524,0.13757699728012085,0.15400411188602448,0.14989733695983887,0.14579054713249207,0.14579054713249207,0.15195071697235107,0.14373716711997983,0.14168377220630643,0.14784394204616547,0.14989733695983887,0.14168377220630643,0.13552361726760864,0.13347022235393524,0.13757699728012085,0.13141684234142303,0.1211498975753784,0.1211498975753784,0.12731006741523743,0.12525667250156403,0.1211498975753784,0.12936344742774963,0.14579054713249207,0.15195071697235107,0.14579054713249207,0.1601642668247223,0.17864476144313812,0.18891170620918277,0.2012320309877396,0.2094455808401108,0.217659130692482,0.2012320309877396,0.18069815635681152,0.1704312115907669,0.16427104175090787,0.14784394204616547,0.13347022235393524,0.14784394204616547,0.15811088681221008,0.15605749189853668,0.14784394204616547,0.15811088681221008,0.1724846065044403,0.19712525606155396,0.25051334500312805,0.3880903422832489,0.6221765875816345,0.8254619836807251,1.0,0.9096509218215942,0.3305954933166504,0.030800821259617805,0.07597535848617554,0.1211498975753784,0.1211498975753784,0.1067761778831482,0.09650924056768416,0.09240246564149857,0.10266940295696259,0.09856262803077696,0.09034907817840576,0.09034907817840576,0.09445585310459137,0.08213552087545395,0.07597535848617554,0.0,0.0,0.0,0.0,0.0,0.0,0.0,0.0,0.0,0.0,0.0,0.0,0.0,0.0,0.0,0.0,0.0,0.0,0.0,0.0,0.0,0.0,0.0,0.0,0.0,0.0,0.0,0.0,0.0,0.0,0.0,0.0,0.0,0.0,0.0,0.0,0.0,0.0,0.0,0.0,0.0,0.0,0.0,0.0,0.0,0.0,0.0,0.0,0.0,0.0,0.0,0.0,0.0,0.0,0.0,0.0,0.0,0.0,0.0,0.0,0.0,0.0,0.0,0.0,0.0,0.0,0.0,0.0,0.0,0.0,0.0,0.0,0.0,0.0,0.0,0.0,0.0,0.0,0.0,0.0,0.0,0.0,0.0,0.0,0.0,0.0,0.0,0.0
1.0,0.9704545736312865,0.7477272748947142,0.4886363744735718,0.2454545497894287,0.1863636374473572,0.145454540848732,0.1363636404275894,0.11818181723356246,0.11136363446712493,0.09772727638483047,0.09772727638483047,0.10909090936183928,0.10000000149011612,0.10000000149011612,0.09090909361839294,0.11136363446712493,0.125,0.11363636702299118,0.12727272510528564,0.1295454502105713,0.13409091532230377,0.1409090906381607,0.1613636314868927,0.1818181872367859,0.2272727340459824,0.2613636255264282,0.2818181812763214,0.290909081697464,0.2954545319080353,0.29318180680274963,0.27272728085517883,0.3000000119209289,0.28863635659217834,0.290909081697464,0.30454546213150024,0.31818181276321406,0.3227272629737854,0.34545454382896423,0.3704545497894287,0.44318181276321406,0.5295454263687134,0.459090918302536,0.34090909361839294,0.17954544723033905,0.0022727272007614374,0.0,0.09090909361839294,0.21590909361839292,0.3977272808551788,0.44999998807907104,0.5340909361839294,0.4000000059604645,0.29318180680274963,0.27727273106575007,0.30227273702621454,0.290909081697464,0.3113636374473572,0.3318181931972504,0.34090909361839294,0.3636363744735718,0.0,0.0,0.0,0.0,0.0,0.0,0.0,0.0,0.0,0.0,0.0,0.0,0.0,0.0,0.0,0.0,0.0,0.0,0.0,0.0,0.0,0.0,0.0,0.0,0.0,0.0,0.0,0.0,0.0,0.0,0.0,0.0,0.0,0.0,0.0,0.0,0.0,0.0,0.0,0.0,0.0,0.0,0.0,0.0,0.0,0.0,0.0,0.0,0.0,0.0,0.0,0.0,0.0,0.0,0.0,0.0,0.0,0.0,0.0,0.0,0.0,0.0,0.0,0.0,0.0,0.0,0.0,0.0,0.0,0.0,0.0,0.0,0.0,0.0,0.0,0.0,0.0,0.0,0.0,0.0,0.0,0.0,0.0,0.0,0.0,0.0,0.0,0.0,0.0,0.0,0.0,0.0,0.0,0.0,0.0,0.0,0.0,0.0,0.0,0.0,0.0,0.0,0.0,0.0,0.0,0.0,0.0,0.0,0.0,0.0,0.0,0.0,0.0,0.0,0.0,0.0,0.0,0.0,0.0,0.0,0.0,0.0,0.0,0.0,0.0,0.0,0.0,0.0
0.8417266011238098,0.7266187071800232,0.09352517873048782,0.04556354880332946,0.04316546767950057,0.0,0.0047961631789803505,0.0047961631789803505,0.0023980815894901752,0.05515587702393532,0.1366906464099884,0.2230215817689896,0.2541966438293457,0.28057554364204407,0.30215826630592346,0.2949640154838562,0.32613909244537354,0.3285371661186218,0.34292566776275635,0.3597122430801392,0.38129496574401855,0.3932853639125824,0.4292565882205963,0.46282973885536194,0.482014387845993,0.5155875086784363,0.5443645119667053,0.5467625856399536,0.5611510872840881,0.5251798629760742,0.482014387845993,0.44124701619148254,0.4028776884078979,0.35491606593132013,0.34052756428718567,0.316546767950058,0.2973621189594269,0.2949640154838562,0.2925659418106079,0.28537169098854065,0.2949640154838562,0.2997601926326752,0.2925659418106079,0.30695444345474243,0.311750590801239,0.3093525171279907,0.3189448416233063,0.32134291529655457,0.33093523979187006,0.366906464099884,0.3908872902393341,0.4028776884078979,0.4340527653694153,0.4436450898647308,0.4436450898647308,0.4244604408740997,0.3788968920707703,0.3381294906139374,0.32374101877212524,0.316546767950058,0.30695444345474243,0.3093525171279907,0.316546767950058,0.30695444345474243,0.32374101877212524,0.33093523979187006,0.34052756428718567,0.4028776884078979,0.6163069605827332,0.9568345546722413,1.0,0.3525179922580719,0.16306954622268677,0.18705035746097565,0.1534772217273712,0.1342925727367401,0.1390887349843979,0.1342925727367401,0.1966426819562912,0.26378896832466125,0.36211031675338745,0.40047961473464966,0.42206233739852905,0.4388489127159119,0.44124701619148254,0.0,0.0,0.0,0.0,0.0,0.0,0.0,0.0,0.0,0.0,0.0,0.0,0.0,0.0,0.0,0.0,0.0,0.0,0.0,0.0,0.0,0.0,0.0,0.0,0.0,0.0,0.0,0.0,0.0,0.0,0.0,0.0,0.0,0.0,0.0,0.0,0.0,0.0,0.0,0.0,0.0,0.0,0.0,0.0,0.0,0.0,0.0,0.0,0.0,0.0,0.0,0.0,0.0,0.0,0.0,0.0,0.0,0.0,0.0,0.0,0.0,0.0,0.0,0.0,0.0,0.0,0.0,0.0,0.0,0.0,0.0,0.0,0.0,0.0,0.0,0.0,0.0,0.0,0.0,0.0,0.0,0.0,0.0,0.0,0.0,0.0,0.0,0.0,0.0,0.0,0.0,0.0,0.0,0.0,0.0,0.0,0.0,0.0,0.0,0.0,0.0,0.0,0.0,0.0
0.9629629850387571,0.8557505011558532,0.6549707651138306,0.4600389897823334,0.22807016968727112,0.06432748585939407,0.007797271013259887,0.011695906519889832,0.027290448546409607,0.06822612136602402,0.10526315867900848,0.13060428202152252,0.16179336607456207,0.16374269127845764,0.17153996229171753,0.16374269127845764,0.16374269127845764,0.15984405577182767,0.15789473056793213,0.14814814925193787,0.14619882404804227,0.1384015530347824,0.14035087823867795,0.13645224273204803,0.14230018854141235,0.14230018854141235,0.15399609506130219,0.15789473056793213,0.17543859779834747,0.18908381462097168,0.20857699215412137,0.2241715341806412,0.24756334722042084,0.2592592537403106,0.28070175647735596,0.29629629850387573,0.317738801240921,0.33138400316238403,0.34307992458343506,0.3469785451889038,0.35867446660995483,0.35672515630722046,0.3625730872154236,0.35282650589942927,0.35282650589942927,0.34307992458343506,0.3391812741756439,0.3352826535701752,0.34892788529396057,0.34307992458343506,0.35087719559669495,0.3411306142807007,0.35672515630722046,0.36842104792594904,0.3625730872154236,0.35282650589942927,0.35282650589942927,0.3547758162021637,0.35867446660995483,0.32163742184638977,0.2943469882011413,0.26900583505630493,0.27485379576683044,0.2573099434375763,0.2631579041481018,0.2553606331348419,0.2651072144508362,0.26120856404304504,0.2670565247535705,0.2631579041481018,0.27290448546409607,0.27290448546409607,0.28070175647735596,0.2787524461746216,0.2846003770828247,0.2826510667800904,0.2826510667800904,0.26120856404304504,0.2495126724243164,0.3703703582286834,0.545808970928192,0.6783625483512878,0.8810915946960449,1.0,0.9922027587890624,0.808966875076294,0.5945419073104857,0.3274853825569153,0.11890838295221327,0.0,0.0,0.009746588766574861,0.05263157933950424,0.09161793440580368,0.12280701845884325,0.1520467847585678,0.16764132678508759,0.16959063708782196,0.15984405577182767,0.15789473056793213,0.15399609506130219,0.0,0.0,0.0,0.0,0.0,0.0,0.0,0.0,0.0,0.0,0.0,0.0,0.0,0.0,0.0,0.0,0.0,0.0,0.0,0.0,0.0,0.0,0.0,0.0,0.0,0.0,0.0,0.0,0.0,0.0,0.0,0.0,0.0,0.0,0.0,0.0,0.0,0.0,0.0,0.0,0.0,0.0,0.0,0.0,0.0,0.0,0.0,0.0,0.0,0.0,0.0,0.0,0.0,0.0,0.0,0.0,0.0,0.0,0.0,0.0,0.0,0.0,0.0,0.0,0.0,0.0,0.0,0.0,0.0,0.0,0.0,0.0,0.0,0.0,0.0,0.0,0.0,0.0,0.0,0.0,0.0,0.0,0.0,0.0,0.0,0.0,0.0,0.0
0.9551401734352112,0.9401869177818297,0.6186915636062622,0.10841121524572372,0.0,0.2186915874481201,0.3233644962310791,0.2953270971775055,0.2822429835796356,0.293457955121994,0.3009345829486847,0.3009345829486847,0.293457955121994,0.2915887832641601,0.2971962690353393,0.30280372500419617,0.293457955121994,0.2878504693508148,0.30280372500419617,0.3121495246887207,0.3102803826332092,0.3102803826332092,0.3308411240577698,0.3345794379711151,0.33271026611328125,0.3457943797111511,0.347663551568985,0.3532710373401642,0.35514017939567566,0.36448597908020014,0.37383177876472473,0.37943926453590393,0.36822429299354553,0.3570093512535095,0.35514017939567566,0.35514017939567566,0.3401869237422943,0.3289719521999359,0.34392523765563965,0.3457943797111511,0.34392523765563965,0.3457943797111511,0.347663551568985,0.34953272342681885,0.3514018654823303,0.347663551568985,0.347663551568985,0.3570093512535095,0.3514018654823303,0.34392523765563965,0.34953272342681885,0.3570093512535095,0.347663551568985,0.3420560657978058,0.35514017939567566,0.3514018654823303,0.33271026611328125,0.3345794379711151,0.3420560657978058,0.3345794379711151,0.33271026611328125,0.33271026611328125,0.3420560657978058,0.34392523765563965,0.3532710373401642,0.35887849330902094,0.36635515093803406,0.37757009267807007,0.37943926453590393,0.37570092082023615,0.37009346485137934,0.37196260690689087,0.3457943797111511,0.336448609828949,0.33831775188446045,0.32149532437324524,0.3102803826332092,0.3177570104598999,0.33271026611328125,0.34953272342681885,0.36448597908020014,0.37383177876472473,0.4074766337871552,0.44485980272293085,0.48411214351654047,0.5476635694503784,0.6878504753112793,0.8897196054458617,1.0,0.8112149238586426,0.3177570104598999,0.011214952915906906,0.17196261882781982,0.3252336382865906,0.33831775188446045,0.32149532437324524,0.3252336382865906,0.3252336382865906,0.32710281014442444,0.33271026611328125,0.32710281014442444,0.3177570104598999,0.3252336382865906,0.3345794379711151,0.3233644962310791,0.0,0.0,0.0,0.0,0.0,0.0,0.0,0.0,0.0,0.0,0.0,0.0,0.0,0.0,0.0,0.0,0.0,0.0,0.0,0.0,0.0,0.0,0.0,0.0,0.0,0.0,0.0,0.0,0.0,0.0,0.0,0.0,0.0,0.0,0.0,0.0,0.0,0.0,0.0,0.0,0.0,0.0,0.0,0.0,0.0,0.0,0.0,0.0,0.0,0.0,0.0,0.0,0.0,0.0,0.0,0.0,0.0,0.0,0.0,0.0,0.0,0.0,0.0,0.0,0.0,0.0,0.0,0.0,0.0,0.0,0.0,0.0,0.0,0.0,0.0,0.0,0.0,0.0,0.0,0.0,0.0,0.0,0.0,0.0
0.9388753175735473,0.8875305652618408,0.29095354676246643,0.0,0.14669926464557648,0.149144247174263,0.2078239619731903,0.22004890441894528,0.2542787194252014,0.19070903956890103,0.22738386690616608,0.21026894450187683,0.23471882939338684,0.2493887543678284,0.2493887543678284,0.2787286043167114,0.2958435118198395,0.2616136968135834,0.2518337368965149,0.2665036618709564,0.2958435118198395,0.330073356628418,0.3129584491252899,0.354523241519928,0.3887530565261841,0.4132029414176941,0.4303178489208221,0.45476773381233215,0.4303178489208221,0.38141807913780207,0.3789730966091156,0.354523241519928,0.35207822918891907,0.34963324666023254,0.3447432816028595,0.31540343165397644,0.27139365673065186,0.30562347173690796,0.23960880935192108,0.24694377183914185,0.2958435118198395,0.26894864439964294,0.2420537918806076,0.2493887543678284,0.2542787194252014,0.2787286043167114,0.2665036618709564,0.2762836217880249,0.2616136968135834,0.30073350667953486,0.298288494348526,0.2762836217880249,0.25916871428489685,0.2518337368965149,0.2420537918806076,0.2493887543678284,0.2762836217880249,0.310513436794281,0.31784841418266296,0.30073350667953486,0.322738379240036,0.32518336176872253,0.322738379240036,0.2787286043167114,0.30317848920822144,0.2860635817050934,0.27139365673065186,0.29095354676246643,0.30073350667953486,0.28117358684539795,0.24449877440929407,0.25672370195388794,0.2787286043167114,0.29095354676246643,0.2738386392593384,0.25916871428489685,0.2616136968135834,0.2420537918806076,0.20048899948596957,0.3447432816028595,0.6479217410087585,1.0,0.7995110154151917,0.2420537918806076,0.07823961228132248,0.161369189620018,0.2518337368965149,0.20537897944450376,0.22493886947631836,0.2542787194252014,0.2762836217880249,0.20537897944450376,0.23960880935192108,0.25916871428489685,0.24694377183914185,0.2958435118198395,0.2860635817050934,0.0,0.0,0.0,0.0,0.0,0.0,0.0,0.0,0.0,0.0,0.0,0.0,0.0,0.0,0.0,0.0,0.0,0.0,0.0,0.0,0.0,0.0,0.0,0.0,0.0,0.0,0.0,0.0,0.0,0.0,0.0,0.0,0.0,0.0,0.0,0.0,0.0,0.0,0.0,0.0,0.0,0.0,0.0,0.0,0.0,0.0,0.0,0.0,0.0,0.0,0.0,0.0,0.0,0.0,0.0,0.0,0.0,0.0,0.0,0.0,0.0,0.0,0.0,0.0,0.0,0.0,0.0,0.0,0.0,0.0,0.0,0.0,0.0,0.0,0.0,0.0,0.0,0.0,0.0,0.0,0.0,0.0,0.0,0.0,0.0,0.0,0.0,0.0,0.0,0.0,0.0,0.0
1.0,0.7290836572647095,0.4223107695579529,0.13545817136764526,0.07171314954757689,0.13545817136764526,0.24302789568901065,0.2749004065990448,0.2908366620540619,0.2908366620540619,0.306772917509079,0.28286853432655334,0.3147410452365875,0.3147410452365875,0.32669323682785034,0.33864542841911316,0.34262949228286743,0.34262949228286743,0.3745020031929016,0.3904382586479187,0.4262948334217072,0.4501992166042328,0.4741035997867584,0.5099601745605469,0.5338645577430725,0.5737051963806152,0.5936254858970642,0.613545835018158,0.6414342522621155,0.6374502182006836,0.613545835018158,0.557768940925598,0.5099601745605469,0.4262948334217072,0.4023904502391815,0.3466135561466217,0.31872510910034174,0.29880478978157043,0.26693227887153625,0.27091634273529047,0.2509960234165192,0.25498008728027344,0.25498008728027344,0.22709164023399356,0.23505976796150208,0.22709164023399356,0.23904383182525635,0.21912351250648496,0.21912351250648496,0.21912351250648496,0.20318725705146787,0.21115538477897644,0.19521912932395932,0.20717132091522217,0.19521912932395932,0.19521912932395932,0.19521912932395932,0.18326693773269653,0.17928287386894226,0.17131474614143372,0.17928287386894226,0.17131474614143372,0.15537849068641663,0.16733068227767944,0.16334661841392517,0.15537849068641663,0.17928287386894226,0.18326693773269653,0.19521912932395932,0.20318725705146787,0.2151394486427307,0.20717132091522217,0.19123506546020508,0.18326693773269653,0.17131474614143372,0.16334661841392517,0.14741036295890808,0.1394422352313995,0.13545817136764526,0.1155378520488739,0.11952191591262816,0.13545817136764526,0.11155378818511962,0.1155378520488739,0.10358566045761108,0.0996015965938568,0.11952191591262816,0.1155378520488739,0.12350597977638245,0.1155378520488739,0.1155378520488739,0.131474107503891,0.14741036295890808,0.15537849068641663,0.2151394486427307,0.3346613645553589,0.5139442086219788,0.4741035997867584,0.20717132091522217,0.31872510910034174,0.5856573581695557,0.6374502182006836,0.41434264183044434,0.20717132091522217,0.05577689409255981,0.0,0.035856574773788445,0.10358566045761108,0.1434262990951538,0.14741036295890808,0.15139442682266235,0.175298810005188,0.17928287386894226,0.19123506546020508,0.19521912932395932,0.2151394486427307,0.2310757040977478,0.24302789568901065,0.2788844704627991,0.3027888536453247,0.35458168387413025,0.3745020031929016,0.0,0.0,0.0,0.0,0.0,0.0,0.0,0.0,0.0,0.0,0.0,0.0,0.0,0.0,0.0,0.0,0.0,0.0,0.0,0.0,0.0,0.0,0.0,0.0,0.0,0.0,0.0,0.0,0.0,0.0,0.0,0.0,0.0,0.0,0.0,0.0,0.0,0.0,0.0,0.0,0.0,0.0,0.0,0.0,0.0,0.0,0.0,0.0,0.0,0.0,0.0,0.0,0.0,0.0,0.0,0.0,0.0,0.0,0.0,0.0,0.0,0.0,0.0,0.0,0.0,0.0,0.0
0.9915966391563416,0.7927170991897582,0.5882353186607361,0.3725490272045136,0.22408963739871976,0.09803921729326248,0.04201680794358253,0.01960784383118153,0.014005602337419987,0.0,0.030812324956059452,0.025210084393620488,0.030812324956059452,0.016806723549962044,0.04201680794358253,0.030812324956059452,0.04201680794358253,0.03361344709992409,0.04481792822480202,0.030812324956059452,0.04201680794358253,0.030812324956059452,0.053221289068460464,0.050420168787240975,0.08403361588716507,0.08403361588716507,0.1092436984181404,0.12324929982423782,0.16246499121189115,0.1736694723367691,0.20168067514896393,0.19887955486774445,0.2184873968362808,0.20168067514896393,0.2044817954301834,0.18487395346164703,0.18207283318042755,0.16526611149311063,0.16526611149311063,0.16246499121189115,0.1596638709306717,0.14565826952457428,0.1568627506494522,0.14005602896213531,0.1568627506494522,0.15126051008701324,0.15126051008701324,0.14565826952457428,0.15406163036823273,0.14845938980579376,0.14845938980579376,0.14005602896213531,0.15406163036823273,0.13725490868091583,0.15126051008701324,0.15406163036823273,0.16526611149311063,0.14845938980579376,0.16246499121189115,0.1596638709306717,0.1764705926179886,0.1876750737428665,0.21288515627384183,0.2100840359926224,0.2577030956745148,0.2661064565181732,0.2885154187679291,0.2549019753932953,0.2577030956745148,0.1680672317743301,0.14005602896213531,0.13445378839969635,0.1428571492433548,0.13165266811847687,0.14845938980579376,0.13725490868091583,0.15406163036823273,0.14845938980579376,0.1596638709306717,0.12885154783725739,0.2100840359926224,0.4789915978908538,0.8179271817207336,1.0,0.8935574293136596,0.7142857313156128,0.49019607901573187,0.33053222298622126,0.19887955486774445,0.09243697673082352,0.06722689419984818,0.025210084393620488,0.028011204674839973,0.028011204674839973,0.039215687662363045,0.03361344709992409,0.05602240934967995,0.04761904850602149,0.05602240934967995,0.04481792822480202,0.050420168787240975,0.0,0.0,0.0,0.0,0.0,0.0,0.0,0.0,0.0,0.0,0.0,0.0,0.0,0.0,0.0,0.0,0.0,0.0,0.0,0.0,0.0,0.0,0.0,0.0,0.0,0.0,0.0,0.0,0.0,0.0,0.0,0.0,0.0,0.0,0.0,0.0,0.0,0.0,0.0,0.0,0.0,0.0,0.0,0.0,0.0,0.0,0.0,0.0,0.0,0.0,0.0,0.0,0.0,0.0,0.0,0.0,0.0,0.0,0.0,0.0,0.0,0.0,0.0,0.0,0.0,0.0,0.0,0.0,0.0,0.0,0.0,0.0,0.0,0.0,0.0,0.0,0.0,0.0,0.0,0.0,0.0,0.0,0.0,0.0,0.0,0.0,0.0,0.0
0.8604061007499696,0.7233502268791199,0.33502537012100214,0.12182740867137908,0.08121827244758606,0.08375634253025056,0.058375634253025055,0.0482233501970768,0.025380710139870644,0.025380710139870644,0.010152284055948256,0.017766498029232025,0.005076142027974129,0.020304568111896515,0.005076142027974129,0.01269035506993532,0.0,0.017766498029232025,0.01269035506993532,0.025380710139870644,0.017766498029232025,0.04314720630645752,0.0482233501970768,0.0761421322822571,0.08629441261291504,0.1192893385887146,0.11167512834072112,0.13705584406852722,0.12944161891937256,0.13197968900203705,0.10152284055948256,0.09898477047681808,0.06852792203426361,0.06598984450101852,0.03553299605846405,0.03807106614112855,0.015228426083922386,0.03299492225050926,0.02791878208518028,0.05329949408769608,0.05076142027974129,0.06345177441835403,0.06091370433568954,0.08883249014616013,0.07868020236492158,0.08375634253025056,0.06852792203426361,0.0761421322822571,0.06091370433568954,0.06852792203426361,0.04314720630645752,0.05076142027974129,0.03045685216784477,0.020304568111896515,0.0025380710139870644,0.01269035506993532,0.01269035506993532,0.02791878208518028,0.022842640057206157,0.03807106614112855,0.02791878208518028,0.058375634253025055,0.0710659921169281,0.08375634253025056,0.0761421322822571,0.08375634253025056,0.0710659921169281,0.08629441261291504,0.0710659921169281,0.06852792203426361,0.05076142027974129,0.0482233501970768,0.03299492225050926,0.04314720630645752,0.03045685216784477,0.04060913622379303,0.03299492225050926,0.05076142027974129,0.03807106614112855,0.0482233501970768,0.03299492225050926,0.05076142027974129,0.058375634253025055,0.08629441261291504,0.08629441261291504,0.10152284055948256,0.08121827244758606,0.08883249014616013,0.06852792203426361,0.07360406219959259,0.06091370433568954,0.0710659921169281,0.058375634253025055,0.06345177441835403,0.06852792203426361,0.06598984450101852,0.06345177441835403,0.07360406219959259,0.07360406219959259,0.09898477047681808,0.08883249014616013,0.10659898817539216,0.09898477047681808,0.11421319842338562,0.10659898817539216,0.12436547875404357,0.12182740867137908,0.15228426456451416,0.18020305037498477,0.312182754278183,0.5482233762741089,0.8071066141128541,1.0,0.8121827244758606,0.3629441559314728,0.12944161891937256,0.10152284055948256,0.11421319842338562,0.08629441261291504,0.0761421322822571,0.06091370433568954,0.058375634253025055,0.04314720630645752,0.045685280114412315,0.04060913622379303,0.0,0.0,0.0,0.0,0.0,0.0,0.0,0.0,0.0,0.0,0.0,0.0,0.0,0.0,0.0,0.0,0.0,0.0,0.0,0.0,0.0,0.0,0.0,0.0,0.0,0.0,0.0,0.0,0.0,0.0,0.0,0.0,0.0,0.0,0.0,0.0,0.0,0.0,0.0,0.0,0.0,0.0,0.0,0.0,0.0,0.0,0.0,0.0,0.0,0.0,0.0,0.0,0.0,0.0,0.0,0.0,0.0,0.0,0.0,0.0,0.0,0.0,0.0,0.0
1.0,0.9508599638938906,0.7371007204055786,0.28992629051208496,0.12039311975240707,0.17936117947101593,0.1498771458864212,0.08353808522224426,0.0565110556781292,0.058968059718608856,0.049140047281980515,0.06633906811475754,0.06388206034898758,0.06142506003379822,0.05405405536293984,0.07862407714128494,0.06633906811475754,0.06633906811475754,0.06142506003379822,0.0687960684299469,0.07125306874513626,0.06633906811475754,0.051597051322460175,0.0565110556781292,0.06388206034898758,0.0565110556781292,0.06388206034898758,0.07616707682609558,0.09090909361839294,0.0810810774564743,0.0810810774564743,0.11547911912202836,0.12285012006759644,0.13022112846374512,0.13513512909412384,0.13022112846374512,0.15479116141796112,0.13513512909412384,0.14004914462566376,0.14250613749027252,0.15233415365219116,0.1375921368598938,0.13513512909412384,0.1498771458864212,0.14004914462566376,0.12039311975240707,0.11793611943721773,0.12776412069797516,0.1130221113562584,0.10073710232973097,0.0933660939335823,0.10810811072587966,0.10073710232973097,0.09090909361839294,0.09828009456396104,0.10073710232973097,0.11547911912202836,0.10319410264492034,0.09582309424877167,0.12285012006759644,0.10565110296010972,0.10810811072587966,0.10810811072587966,0.12285012006759644,0.11793611943721773,0.13267813622951508,0.14496314525604248,0.1621621549129486,0.1744471788406372,0.19656018912792203,0.22850123047828677,0.23587223887443545,0.23587223887443545,0.21867321431636808,0.2162162214517593,0.201474204659462,0.20638820528984067,0.1498771458864212,0.1253071278333664,0.12285012006759644,0.11547911912202836,0.10073710232973097,0.10565110296010972,0.11056511104106904,0.1130221113562584,0.06388206034898758,0.0,0.07125306874513626,0.33415234088897705,0.5896806120872498,0.8304668068885803,0.9803439974784851,0.9705159664154052,0.8058968186378478,0.35872235894203186,0.12039311975240707,0.1867321878671646,0.15479116141796112,0.07862407714128494,0.058968059718608856,0.06633906811475754,0.06633906811475754,0.06142506003379822,0.07616707682609558,0.0687960684299469,0.058968059718608856,0.049140047281980515,0.06142506003379822,0.06388206034898758,0.0,0.0,0.0,0.0,0.0,0.0,0.0,0.0,0.0,0.0,0.0,0.0,0.0,0.0,0.0,0.0,0.0,0.0,0.0,0.0,0.0,0.0,0.0,0.0,0.0,0.0,0.0,0.0,0.0,0.0,0.0,0.0,0.0,0.0,0.0,0.0,0.0,0.0,0.0,0.0,0.0,0.0,0.0,0.0,0.0,0.0,0.0,0.0,0.0,0.0,0.0,0.0,0.0,0.0,0.0,0.0,0.0,0.0,0.0,0.0,0.0,0.0,0.0,0.0,0.0,0.0,0.0,0.0,0.0,0.0,0.0,0.0,0.0,0.0,0.0,0.0,0.0,0.0,0.0,0.0
1.0,0.4982332289218903,0.25088340044021606,0.28268551826477045,0.23674911260604856,0.208480566740036,0.2190812677145004,0.2720848023891449,0.30388692021369934,0.3780918717384338,0.3639575839042664,0.42049470543861384,0.3710247278213501,0.34982332587242126,0.38162544369697565,0.36749115586280817,0.38162544369697565,0.3639575839042664,0.35335689783096313,0.33922260999679565,0.34982332587242126,0.36749115586280817,0.3321554660797119,0.3180212080478668,0.2968197762966156,0.25441697239875793,0.23674911260604856,0.2190812677145004,0.16607773303985596,0.14134275913238523,0.08127208799123763,0.06713780760765076,0.01413427572697401,0.010600706562399864,0.02473498322069645,0.07067137956619263,0.10247349739074708,0.15194346010684967,0.19081272184848783,0.19434629380702967,0.16607773303985596,0.17314487695693967,0.16961130499839783,0.17314487695693967,0.15194346010684967,0.17667844891548157,0.17314487695693967,0.16961130499839783,0.1590106040239334,0.16961130499839783,0.16607773303985596,0.03180212154984474,0.003533568931743502,0.34628975391387934,0.6360424160957336,0.21554769575595853,0.017667844891548157,0.11660777032375336,0.09540636092424391,0.05300353467464447,0.007067137863487004,0.0,0.06007067114114761,0.13074204325675964,0.19081272184848783,0.0,0.0,0.0,0.0,0.0,0.0,0.0,0.0,0.0,0.0,0.0,0.0,0.0,0.0,0.0,0.0,0.0,0.0,0.0,0.0,0.0,0.0,0.0,0.0,0.0,0.0,0.0,0.0,0.0,0.0,0.0,0.0,0.0,0.0,0.0,0.0,0.0,0.0,0.0,0.0,0.0,0.0,0.0,0.0,0.0,0.0,0.0,0.0,0.0,0.0,0.0,0.0,0.0,0.0,0.0,0.0,0.0,0.0,0.0,0.0,0.0,0.0,0.0,0.0,0.0,0.0,0.0,0.0,0.0,0.0,0.0,0.0,0.0,0.0,0.0,0.0,0.0,0.0,0.0,0.0,0.0,0.0,0.0,0.0,0.0,0.0,0.0,0.0,0.0,0.0,0.0,0.0,0.0,0.0,0.0,0.0,0.0,0.0,0.0,0.0,0.0,0.0,0.0,0.0,0.0,0.0,0.0,0.0,0.0,0.0,0.0,0.0,0.0,0.0,0.0,0.0,0.0,0.0,0.0,0.0,0.0,0.0,0.0,0.0
1.0,0.7506112456321715,0.28117358684539795,0.1149144247174263,0.1271393597126007,0.11980440467596054,0.09535451978445053,0.10757946223020552,0.08557457476854323,0.07823961228132248,0.07823961228132248,0.09535451978445053,0.08557457476854323,0.08312958478927612,0.08312958478927612,0.10024449974298476,0.092909537255764,0.08801955729722977,0.08312958478927612,0.08557457476854323,0.09779950976371764,0.1051344722509384,0.09779950976371764,0.10757946223020552,0.1149144247174263,0.11002445220947264,0.11735941469669342,0.11980440467596054,0.11002445220947264,0.11735941469669342,0.13202933967113495,0.1393643021583557,0.1369193196296692,0.14669926464557648,0.15403422713279724,0.16381418704986572,0.13447432219982147,0.13202933967113495,0.1369193196296692,0.14669926464557648,0.13202933967113495,0.1271393597126007,0.12469437718391418,0.1393643021583557,0.1393643021583557,0.1393643021583557,0.1271393597126007,0.1393643021583557,0.11980440467596054,0.1369193196296692,0.1271393597126007,0.14180928468704224,0.1393643021583557,0.13447432219982147,0.13202933967113495,0.14180928468704224,0.1393643021583557,0.149144247174263,0.16870415210723877,0.18337407708168027,0.1931540369987488,0.20293398201465607,0.20293398201465607,0.2078239619731903,0.19070903956890103,0.15647922456264496,0.1271393597126007,0.11002445220947264,0.10024449974298476,0.08557457476854323,0.07334963232278822,0.08801955729722977,0.07334963232278822,0.051344744861125946,0.08557457476854323,0.28117358684539795,0.6112469434738159,0.9217603802680968,0.8044009804725648,0.33985328674316406,0.07090464234352112,0.05623471736907959,0.07090464234352112,0.04156479239463806,0.014669926837086676,0.012224938720464706,0.019559903070330616,0.02200488932430744,0.00977995153516531,0.004889975767582655,0.0024449878837913275,0.012224938720464706,0.0,0.0,0.0,0.0,0.0,0.0,0.0,0.0,0.0,0.0,0.0,0.0,0.0,0.0,0.0,0.0,0.0,0.0,0.0,0.0,0.0,0.0,0.0,0.0,0.0,0.0,0.0,0.0,0.0,0.0,0.0,0.0,0.0,0.0,0.0,0.0,0.0,0.0,0.0,0.0,0.0,0.0,0.0,0.0,0.0,0.0,0.0,0.0,0.0,0.0,0.0,0.0,0.0,0.0,0.0,0.0,0.0,0.0,0.0,0.0,0.0,0.0,0.0,0.0,0.0,0.0,0.0,0.0,0.0,0.0,0.0,0.0,0.0,0.0,0.0,0.0,0.0,0.0,0.0,0.0,0.0,0.0,0.0,0.0,0.0,0.0,0.0,0.0,0.0,0.0,0.0,0.0,0.0,0.0,0.0,0.0,0.0
1.0,0.8876889944076538,0.5809935331344604,0.3498920202255249,0.28077754378318787,0.2246220260858536,0.1706263571977615,0.16414687037467957,0.16846652328968048,0.15334773063659668,0.1468682438135147,0.14902807772159576,0.1468682438135147,0.14038877189159393,0.13822893798351288,0.13822893798351288,0.13390928506851196,0.12311015278100967,0.1209503263235092,0.11015118658542632,0.1058315336704254,0.0863930881023407,0.07559395581483841,0.0712742954492569,0.047516196966171265,0.028077753260731697,0.01295896340161562,0.010799136012792587,0.01295896340161562,0.0,0.0021598271559923887,0.02591792680323124,0.05183585360646248,0.07343412190675734,0.1058315336704254,0.1468682438135147,0.17926566302776337,0.1943844556808472,0.20518358051776883,0.2246220260858536,0.2354211658239365,0.2289416790008545,0.2181425541639328,0.23110151290893555,0.23758099973201752,0.2224622070789337,0.22678185999393463,0.23758099973201752,0.2332613319158554,0.23110151290893555,0.22678185999393463,0.24622030556201932,0.269978404045105,0.2894168496131897,0.29805615544319153,0.33693304657936096,0.3650107979774475,0.34125271439552307,0.3347732126712799,0.3455723524093628,0.3110151290893554,0.27213823795318604,0.25053995847702026,0.23110151290893555,0.2224622070789337,0.21382290124893188,0.2246220260858536,0.2354211658239365,0.2354211658239365,0.2850971817970276,0.4989200830459594,0.7580993771553038,0.9568034410476685,0.9784017205238342,0.8250539898872374,0.5226781964302063,0.33693304657936096,0.28077754378318787,0.20734341442584991,0.16630668938159943,0.16414687037467957,0.15982721745967865,0.14470842480659485,0.1511879116296768,0.1555075645446777,0.1468682438135147,0.1425485908985138,0.0,0.0,0.0,0.0,0.0,0.0,0.0,0.0,0.0,0.0,0.0,0.0,0.0,0.0,0.0,0.0,0.0,0.0,0.0,0.0,0.0,0.0,0.0,0.0,0.0,0.0,0.0,0.0,0.0,0.0,0.0,0.0,0.0,0.0,0.0,0.0,0.0,0.0,0.0,0.0,0.0,0.0,0.0,0.0,0.0,0.0,0.0,0.0,0.0,0.0,0.0,0.0,0.0,0.0,0.0,0.0,0.0,0.0,0.0,0.0,0.0,0.0,0.0,0.0,0.0,0.0,0.0,0.0,0.0,0.0,0.0,0.0,0.0,0.0,0.0,0.0,0.0,0.0,0.0,0.0,0.0,0.0,0.0,0.0,0.0,0.0,0.0,0.0,0.0,0.0,0.0,0.0,0.0,0.0,0.0,0.0,0.0,0.0,0.0,0.0,0.0,0.0
0.9364069700241088,0.8903020620346069,0.3593004643917084,0.0,0.1685214638710022,0.30524641275405884,0.30365660786628723,0.27821940183639526,0.28139904141426086,0.28775835037231445,0.29252782464027405,0.28616851568222046,0.28616851568222046,0.29411765933036804,0.29729729890823364,0.29252782464027405,0.29093798995018005,0.28775835037231445,0.29570746421813965,0.29093798995018005,0.29411765933036804,0.29093798995018005,0.29729729890823364,0.29093798995018005,0.29411765933036804,0.29888713359832764,0.30206677317619324,0.29729729890823364,0.28934818506240845,0.29729729890823364,0.30524641275405884,0.30683624744415283,0.30524641275405884,0.314785361289978,0.3211446702480316,0.317965030670166,0.31001588702201843,0.3227345049381256,0.3322734534740448,0.3290938138961792,0.3227345049381256,0.317965030670166,0.3290938138961792,0.3243243098258972,0.316375195980072,0.3259141445159912,0.3275039792060852,0.3116057217121124,0.29570746421813965,0.29093798995018005,0.28457871079444885,0.2686804533004761,0.2543720304965973,0.2591415047645569,0.2591415047645569,0.2527821958065033,0.24801272153854367,0.24960254132747647,0.2543720304965973,0.2527821958065033,0.2527821958065033,0.2575516700744629,0.2575516700744629,0.2639109790325165,0.2623211443424225,0.2623211443424225,0.2718600928783417,0.2655007839202881,0.2655007839202881,0.2607313096523285,0.2639109790325165,0.2607313096523285,0.2559618353843689,0.2575516700744629,0.2623211443424225,0.2559618353843689,0.2543720304965973,0.2511923611164093,0.2543720304965973,0.24801272153854367,0.24483306705951688,0.24642288684844968,0.24960254132747647,0.24642288684844968,0.23847377300262448,0.23847377300262448,0.24801272153854367,0.24642288684844968,0.24324324727058408,0.2575516700744629,0.2655007839202881,0.27344992756843567,0.28139904141426086,0.28934818506240845,0.28934818506240845,0.28934818506240845,0.27980920672416687,0.28139904141426086,0.2718600928783417,0.24642288684844968,0.23052464425563807,0.24006359279155728,0.24483306705951688,0.2368839383125305,0.23052464425563807,0.23211446404457087,0.23211446404457087,0.2337042987346649,0.23211446404457087,0.23847377300262448,0.2511923611164093,0.2543720304965973,0.2607313096523285,0.3704292476177216,0.6772655248641968,1.0,0.7980921864509583,0.18759936094284055,0.0031796502880752087,0.2575516700744629,0.29729729890823364,0.2702702581882477,0.27344992756843567,0.27662956714630127,0.2702702581882477,0.27344992756843567,0.27980920672416687,0.28298887610435486,0.2686804533004761,0.27344992756843567,0.28139904141426086,0.27980920672416687,0.2718600928783417,0.27821940183639526,0.28457871079444885,0.28139904141426086,0.27662956714630127,0.27662956714630127,0.0,0.0,0.0,0.0,0.0,0.0,0.0,0.0,0.0,0.0,0.0,0.0,0.0,0.0,0.0,0.0,0.0,0.0,0.0,0.0,0.0,0.0,0.0,0.0,0.0,0.0,0.0,0.0,0.0,0.0,0.0,0.0,0.0,0.0,0.0,0.0,0.0,0.0,0.0,0.0,0.0,0.0,0.0,0.0,0.0,0.0,0.0,0.0,0.0,0.0,0.0
1.0,0.7455357313156128,0.3735119104385376,0.0684523805975914,0.0,0.125,0.1547619104385376,0.1160714253783226,0.1190476194024086,0.1160714253783226,0.1101190447807312,0.1056547611951828,0.09672619402408601,0.1086309552192688,0.1026785746216774,0.1101190447807312,0.127976194024086,0.1428571492433548,0.1681547611951828,0.181547611951828,0.2142857164144516,0.247023805975914,0.2678571343421936,0.306547611951828,0.3392857015132904,0.3824404776096344,0.4196428656578064,0.4330357015132904,0.4657738208770752,0.4895833432674408,0.4910714328289032,0.4776785671710968,0.4642857015132904,0.4553571343421936,0.425595223903656,0.380952388048172,0.3526785671710968,0.3273809552192688,0.3050595223903656,0.293154776096344,0.2857142984867096,0.2946428656578064,0.287202388048172,0.2797619104385376,0.3050595223903656,0.331845223903656,0.3482142984867096,0.3601190447807312,0.3616071343421936,0.349702388048172,0.2886904776096344,0.2410714328289032,0.2336309552192688,0.2306547611951828,0.2321428507566452,0.2232142835855484,0.21875,0.2336309552192688,0.2306547611951828,0.212797611951828,0.2142857164144516,0.3392857015132904,0.65625,0.9776785969734192,0.882440447807312,0.5267857313156128,0.1696428507566452,0.014880952425301073,0.122023805975914,0.181547611951828,0.153273805975914,0.1383928507566452,0.1339285671710968,0.1413690447807312,0.1339285671710968,0.130952388048172,0.0,0.0,0.0,0.0,0.0,0.0,0.0,0.0,0.0,0.0,0.0,0.0,0.0,0.0,0.0,0.0,0.0,0.0,0.0,0.0,0.0,0.0,0.0,0.0,0.0,0.0,0.0,0.0,0.0,0.0,0.0,0.0,0.0,0.0,0.0,0.0,0.0,0.0,0.0,0.0,0.0,0.0,0.0,0.0,0.0,0.0,0.0,0.0,0.0,0.0,0.0,0.0,0.0,0.0,0.0,0.0,0.0,0.0,0.0,0.0,0.0,0.0,0.0,0.0,0.0,0.0,0.0,0.0,0.0,0.0,0.0,0.0,0.0,0.0,0.0,0.0,0.0,0.0,0.0,0.0,0.0,0.0,0.0,0.0,0.0,0.0,0.0,0.0,0.0,0.0,0.0,0.0,0.0,0.0,0.0,0.0,0.0,0.0,0.0,0.0,0.0,0.0,0.0,0.0,0.0,0.0,0.0,0.0,0.0,0.0,0.0,0.0,0.0
0.9235668778419495,0.43949043750762934,0.019108280539512634,0.06369426846504211,0.07643312215805052,0.06369426846504211,0.07961783558130264,0.06369426846504211,0.07006369531154633,0.07324840873479843,0.07324840873479843,0.06687898188829422,0.07961783558130264,0.06369426846504211,0.0573248416185379,0.04777070134878159,0.06050955504179001,0.0541401281952858,0.06050955504179001,0.06050955504179001,0.05095541477203369,0.0541401281952858,0.06050955504179001,0.06369426846504211,0.06687898188829422,0.05095541477203369,0.0541401281952858,0.041401274502277374,0.03821656107902527,0.019108280539512634,0.01592356711626053,0.006369426846504211,0.025477707386016846,0.019108280539512634,0.03184713423252106,0.03503184765577316,0.0573248416185379,0.07324840873479843,0.11783439666032793,0.11783439666032793,0.12738853693008423,0.13375796377658844,0.14012739062309265,0.14649681746959686,0.15286624431610107,0.14649681746959686,0.14968152344226837,0.14331209659576416,0.14649681746959686,0.14331209659576416,0.13375796377658844,0.12420382350683212,0.14012739062309265,0.13694266974925995,0.14012739062309265,0.13694266974925995,0.14012739062309265,0.12738853693008423,0.13375796377658844,0.13375796377658844,0.1305732429027557,0.1305732429027557,0.14012739062309265,0.14012739062309265,0.14649681746959686,0.14331209659576416,0.14331209659576416,0.13694266974925995,0.14012739062309265,0.15605095028877258,0.17834395170211792,0.19108280539512637,0.19426751136779785,0.2038216590881348,0.2165605127811432,0.2006369382143021,0.2006369382143021,0.19426751136779785,0.20700636506080627,0.2006369382143021,0.21019108593463895,0.168789803981781,0.14649681746959686,0.1305732429027557,0.14331209659576416,0.13694266974925995,0.13694266974925995,0.12738853693008423,0.1305732429027557,0.12738853693008423,0.12101911008358,0.07643312215805052,0.022292993962764737,0.0,0.2165605127811432,0.4171974658966064,0.7675158977508546,1.0,0.8821656107902528,0.14012739062309265,0.09554140269756317,0.1146496832370758,0.1114649698138237,0.1082802563905716,0.1146496832370758,0.1114649698138237,0.1114649698138237,0.10509554296731947,0.1146496832370758,0.09554140269756317,0.1082802563905716,0.09872611612081528,0.1114649698138237,0.1082802563905716,0.1082802563905716,0.1082802563905716,0.0,0.0,0.0,0.0,0.0,0.0,0.0,0.0,0.0,0.0,0.0,0.0,0.0,0.0,0.0,0.0,0.0,0.0,0.0,0.0,0.0,0.0,0.0,0.0,0.0,0.0,0.0,0.0,0.0,0.0,0.0,0.0,0.0,0.0,0.0,0.0,0.0,0.0,0.0,0.0,0.0,0.0,0.0,0.0,0.0,0.0,0.0,0.0,0.0,0.0,0.0,0.0,0.0,0.0,0.0,0.0,0.0,0.0,0.0,0.0,0.0,0.0,0.0,0.0,0.0,0.0,0.0,0.0,0.0,0.0,0.0,0.0,0.0
1.0,0.9125799536705016,0.336887001991272,0.05756929516792297,0.2196162045001984,0.2068230211734772,0.1300639659166336,0.123667374253273,0.12153518199920654,0.13219615817070007,0.12153518199920654,0.11300639808177948,0.11513859033584593,0.123667374253273,0.11300639808177948,0.1108741983771324,0.11300639808177948,0.123667374253273,0.117270790040493,0.1108741983771324,0.12153518199920654,0.13219615817070007,0.1364605575799942,0.1300639659166336,0.1492537260055542,0.168443500995636,0.17697228491306305,0.17484009265899658,0.20255863666534424,0.22814498841762543,0.2409381717443466,0.2558635473251343,0.28784647583961487,0.31556501984596247,0.32835820317268366,0.3411513864994049,0.3539445698261261,0.3646055459976196,0.35607674717903137,0.32835820317268366,0.2899786829948425,0.2622601389884949,0.21748401224613187,0.17057569324970245,0.1620469093322754,0.15138593316078186,0.13219615817070007,0.1108741983771324,0.11513859033584593,0.12153518199920654,0.1044776141643524,0.09168443828821182,0.09808102250099182,0.123667374253273,0.10874200612306593,0.10234541445970537,0.11513859033584593,0.1279317736625671,0.11940298229455948,0.11940298229455948,0.11940298229455948,0.13219615817070007,0.1279317736625671,0.11940298229455948,0.123667374253273,0.123667374253273,0.123667374253273,0.11300639808177948,0.1108741983771324,0.117270790040493,0.1108741983771324,0.1044776141643524,0.10021322220563889,0.10660980641841888,0.09808102250099182,0.09168443828821182,0.09381663054227829,0.10021322220563889,0.09381663054227829,0.08315564692020416,0.08528784662485121,0.09594883024692535,0.08742004632949829,0.07889125496149062,0.0810234546661377,0.08742004632949829,0.09594883024692535,0.08955223858356477,0.07675906270742416,0.09808102250099182,0.08955223858356477,0.0810234546661377,0.0810234546661377,0.09381663054227829,0.08528784662485121,0.09168443828821182,0.1108741983771324,0.1492537260055542,0.15138593316078186,0.12579956650733948,0.11940298229455948,0.11513859033584593,0.08742004632949829,0.07036247104406357,0.07675906270742416,0.09168443828821182,0.08528784662485121,0.07249467074871062,0.07675906270742416,0.09168443828821182,0.07889125496149062,0.07036247104406357,0.0682302787899971,0.07036247104406357,0.21748401224613187,0.609808087348938,0.9573560953140258,0.8678038120269774,0.2601279318332672,0.0,0.16631129384040833,0.15778250992298126,0.09168443828821182,0.07675906270742416,0.08315564692020416,0.08528784662485121,0.07249467074871062,0.06609807908535004,0.061833687126636505,0.0746268630027771,0.07249467074871062,0.06609807908535004,0.07249467074871062,0.08528784662485121,0.07889125496149062,0.0682302787899971,0.07249467074871062,0.08742004632949829,0.08955223858356477,0.08528784662485121,0.0,0.0,0.0,0.0,0.0,0.0,0.0,0.0,0.0,0.0,0.0,0.0,0.0,0.0,0.0,0.0,0.0,0.0,0.0,0.0,0.0,0.0,0.0,0.0,0.0,0.0,0.0,0.0,0.0,0.0,0.0,0.0,0.0,0.0,0.0,0.0,0.0,0.0,0.0,0.0,0.0,0.0,0.0,0.0,0.0,0.0,0.0,0.0,0.0
0.9486486315727232,0.5,0.008108108304440975,0.0,0.02432432398200035,0.02162162214517593,0.013513513840734959,0.008108108304440975,0.02972972951829433,0.01621621660888195,0.02702702768146992,0.03513513505458832,0.04324324429035186,0.04324324429035186,0.04324324429035186,0.0648648664355278,0.056756757199764245,0.07837837934494017,0.09189189225435257,0.09459459781646729,0.12162162363529204,0.13513512909412384,0.14054054021835327,0.15405406057834625,0.17027026414871216,0.1756756752729416,0.18648648262023923,0.18918919563293457,0.18648648262023923,0.1594594568014145,0.1513513475656509,0.1135135143995285,0.08918918669223785,0.0648648664355278,0.04324324429035186,0.037837836891412735,0.037837836891412735,0.02432432398200035,0.018918918445706367,0.02162162214517593,0.03513513505458832,0.02432432398200035,0.03513513505458832,0.045945946127176285,0.037837836891412735,0.04054053872823715,0.05405405536293984,0.0486486479640007,0.05405405536293984,0.062162160873413086,0.05405405536293984,0.0486486479640007,0.05135134980082512,0.05135134980082512,0.05135134980082512,0.05135134980082512,0.062162160873413086,0.04324324429035186,0.05405405536293984,0.056756757199764245,0.05405405536293984,0.04324324429035186,0.08918918669223785,0.11081080883741377,0.11891891807317732,0.15675675868988037,0.1945945918560028,0.1945945918560028,0.20540539920330048,0.1756756752729416,0.10810811072587966,0.08378378301858902,0.05945945903658866,0.045945946127176285,0.037837836891412735,0.04054053872823715,0.037837836891412735,0.03513513505458832,0.045945946127176285,0.062162160873413086,0.0648648664355278,0.11891891807317732,0.3270270228385925,0.7432432174682617,1.0,0.47567567229270935,0.04324324429035186,0.05405405536293984,0.0972972959280014,0.07567567378282547,0.07027027010917664,0.07027027010917664,0.07567567378282547,0.08918918669223785,0.10000000149011612,0.09189189225435257,0.10540540516376495,0.10540540516376495,0.11621621251106262,0.1135135143995285,0.0,0.0,0.0,0.0,0.0,0.0,0.0,0.0,0.0,0.0,0.0,0.0,0.0,0.0,0.0,0.0,0.0,0.0,0.0,0.0,0.0,0.0,0.0,0.0,0.0,0.0,0.0,0.0,0.0,0.0,0.0,0.0,0.0,0.0,0.0,0.0,0.0,0.0,0.0,0.0,0.0,0.0,0.0,0.0,0.0,0.0,0.0,0.0,0.0,0.0,0.0,0.0,0.0,0.0,0.0,0.0,0.0,0.0,0.0,0.0,0.0,0.0,0.0,0.0,0.0,0.0,0.0,0.0,0.0,0.0,0.0,0.0,0.0,0.0,0.0,0.0,0.0,0.0,0.0,0.0,0.0,0.0,0.0,0.0,0.0,0.0,0.0,0.0,0.0
0.1437908560037613,0.4248366057872772,0.8496732115745544,0.16339869797229767,0.07843137532472609,0.3529411852359772,0.4444444477558136,0.45751634240150446,0.49673202633857727,0.45751634240150446,0.529411792755127,0.4836601316928864,0.5359477400779724,0.516339898109436,0.5686274766921997,0.5424836874008179,0.5751634240150452,0.5490196347236633,0.601307213306427,0.5751634240150452,0.6339869499206543,0.601307213306427,0.6601307392120361,0.6470588445663452,0.7058823704719543,0.6797385811805725,0.7189542651176453,0.7320261597633363,0.7712418437004089,0.7843137383460999,0.816993474960327,0.816993474960327,0.8888888955116272,0.8235294222831726,0.8496732115745544,0.7908496856689453,0.7843137383460999,0.6928104758262633,0.6797385811805725,0.601307213306427,0.6209150552749634,0.5686274766921997,0.5686274766921997,0.5359477400779724,0.5424836874008179,0.5032680034637451,0.5490196347236633,0.5228758454322815,0.516339898109436,0.49673202633857727,0.5490196347236633,0.4771241843700409,0.5359477400779724,0.5032680034637451,0.5228758454322815,0.49673202633857727,0.5359477400779724,0.49673202633857727,0.5555555820465088,0.49673202633857727,0.516339898109436,0.46405228972435,0.49019607901573187,0.46405228972435,0.4836601316928864,0.4509803950786591,0.4836601316928864,0.4379085004329681,0.4705882370471954,0.41830065846443176,0.4509803950786591,0.4117647111415863,0.4379085004329681,0.4444444477558136,0.4509803950786591,0.3921568691730499,0.4313725531101226,0.46405228972435,0.516339898109436,0.4771241843700409,0.49673202633857727,0.4836601316928864,0.5228758454322815,0.49673202633857727,0.49673202633857727,0.46405228972435,0.49019607901573187,0.45751634240150446,0.49019607901573187,0.4771241843700409,0.45751634240150446,0.37908497452735906,0.4313725531101226,0.3986928164958954,0.4248366057872772,0.3660130798816681,0.3921568691730499,0.3986928164958954,0.41830065846443176,0.3921568691730499,0.4117647111415863,0.4052287638187408,0.49019607901573187,0.5490196347236633,0.6470588445663452,0.5359477400779724,0.4379085004329681,0.3006536066532135,0.5686274766921997,1.0,0.6535947918891907,0.0,0.18300653994083405,0.38562092185020447,0.46405228972435,0.4509803950786591,0.516339898109436,0.5098039507865906,0.5424836874008179,0.49019607901573187,0.5816993713378905,0.5424836874008179,0.5751634240150452,0.5751634240150452,0.601307213306427,0.5947712659835817,0.6601307392120361,0.6274510025978088,0.6601307392120361,0.0,0.0,0.0,0.0,0.0,0.0,0.0,0.0,0.0,0.0,0.0,0.0,0.0,0.0,0.0,0.0,0.0,0.0,0.0,0.0,0.0,0.0,0.0,0.0,0.0,0.0,0.0,0.0,0.0,0.0,0.0,0.0,0.0,0.0,0.0,0.0,0.0,0.0,0.0,0.0,0.0,0.0,0.0,0.0,0.0,0.0,0.0,0.0,0.0,0.0,0.0,0.0,0.0,0.0,0.0,0.0,0.0,0.0,0.0,0.0
1.0,0.7383177280426025,0.49065420031547546,0.24766355752944944,0.07476635277271271,0.0,0.08411215245723724,0.17289718985557556,0.21962617337703705,0.2289719581604004,0.23831775784492487,0.23831775784492487,0.25233644247055054,0.24766355752944944,0.2710280418395996,0.25233644247055054,0.2850467264652252,0.2850467264652252,0.30841121077537537,0.3177570104598999,0.3504672944545746,0.36915886402130127,0.40654206275939936,0.4345794320106506,0.4719626307487488,0.5,0.5420560836791992,0.5607476830482483,0.5794392228126526,0.5981308221817017,0.6168224215507507,0.6028037667274475,0.5514018535614014,0.48130840063095087,0.4299065470695496,0.37850466370582575,0.336448609828949,0.3130841255187988,0.3037383258342743,0.2850467264652252,0.2757009267807007,0.2710280418395996,0.26635512709617615,0.2710280418395996,0.257009357213974,0.26635512709617615,0.2757009267807007,0.2616822421550751,0.2710280418395996,0.2710280418395996,0.2710280418395996,0.2616822421550751,0.2616822421550751,0.2757009267807007,0.26635512709617615,0.2757009267807007,0.26635512709617615,0.2710280418395996,0.2616822421550751,0.25233644247055054,0.2616822421550751,0.26635512709617615,0.2897196114063263,0.28037384152412415,0.29906541109085083,0.2897196114063263,0.3457943797111511,0.34112149477005005,0.3317756950855255,0.3177570104598999,0.2943925261497497,0.28037384152412415,0.2850467264652252,0.24766355752944944,0.25233644247055054,0.23364485800266263,0.23364485800266263,0.2429906576871872,0.23364485800266263,0.2289719581604004,0.22429905831813807,0.22429905831813807,0.2289719581604004,0.2289719581604004,0.21962617337703705,0.23831775784492487,0.23831775784492487,0.23364485800266263,0.257009357213974,0.28037384152412415,0.35514017939567566,0.5,0.6682242751121521,0.65887850522995,0.4252336323261261,0.3504672944545746,0.5887850522994995,0.822429895401001,0.845794379711151,0.6121495366096497,0.4299065470695496,0.3177570104598999,0.18224298954010007,0.08878504484891891,0.1355140209197998,0.19626168906688687,0.21962617337703705,0.21962617337703705,0.23364485800266263,0.22429905831813807,0.2429906576871872,0.23831775784492487,0.24766355752944944,0.26635512709617615,0.2710280418395996,0.2897196114063263,0.3130841255187988,0.336448609828949,0.0,0.0,0.0,0.0,0.0,0.0,0.0,0.0,0.0,0.0,0.0,0.0,0.0,0.0,0.0,0.0,0.0,0.0,0.0,0.0,0.0,0.0,0.0,0.0,0.0,0.0,0.0,0.0,0.0,0.0,0.0,0.0,0.0,0.0,0.0,0.0,0.0,0.0,0.0,0.0,0.0,0.0,0.0,0.0,0.0,0.0,0.0,0.0,0.0,0.0,0.0,0.0,0.0,0.0,0.0,0.0,0.0,0.0,0.0,0.0,0.0,0.0,0.0,0.0,0.0,0.0,0.0,0.0,0.0,0.0,0.0
1.0,0.9610062837600707,0.8050314188003539,0.6314465403556824,0.5798742175102234,0.5647798776626587,0.5333333611488342,0.5106918215751648,0.5094339847564697,0.5220125913619995,0.5194968581199646,0.5194968581199646,0.4905660450458527,0.48679244518280024,0.5094339847564697,0.5106918215751648,0.4704402387142181,0.48805031180381775,0.49937108159065247,0.48176100850105286,0.44528302550315857,0.4578616321086884,0.4364779889583588,0.4188679158687592,0.423899382352829,0.4150943458080292,0.40377357602119446,0.398742139339447,0.42767295241355896,0.42138364911079407,0.4226415157318115,0.44150942564010626,0.45283019542694086,0.48176100850105286,0.49937108159065247,0.5044025182723999,0.48679244518280024,0.4968553483486176,0.5220125913619995,0.5169811248779297,0.5308176279067993,0.545911967754364,0.5874213576316833,0.645283043384552,0.6855345964431763,0.6955974698066713,0.44528302550315857,0.15094339847564697,0.0628930851817131,0.01886792480945587,0.0,0.03144654259085655,0.09433962404727936,0.22641509771347043,0.29308176040649414,0.3371069133281708,0.44276729226112366,0.5182390213012695,0.601257860660553,0.6754717230796814,0.7169811129570007,0.7408804893493651,0.7647798657417297,0.7622641324996947,0.7647798657417297,0.8440251350402832,0.8314465284347534,0.7874214053153991,0.0,0.0,0.0,0.0,0.0,0.0,0.0,0.0,0.0,0.0,0.0,0.0,0.0,0.0,0.0,0.0,0.0,0.0,0.0,0.0,0.0,0.0,0.0,0.0,0.0,0.0,0.0,0.0,0.0,0.0,0.0,0.0,0.0,0.0,0.0,0.0,0.0,0.0,0.0,0.0,0.0,0.0,0.0,0.0,0.0,0.0,0.0,0.0,0.0,0.0,0.0,0.0,0.0,0.0,0.0,0.0,0.0,0.0,0.0,0.0,0.0,0.0,0.0,0.0,0.0,0.0,0.0,0.0,0.0,0.0,0.0,0.0,0.0,0.0,0.0,0.0,0.0,0.0,0.0,0.0,0.0,0.0,0.0,0.0,0.0,0.0,0.0,0.0,0.0,0.0,0.0,0.0,0.0,0.0,0.0,0.0,0.0,0.0,0.0,0.0,0.0,0.0,0.0,0.0,0.0,0.0,0.0,0.0,0.0,0.0,0.0,0.0,0.0,0.0,0.0,0.0,0.0,0.0,0.0,0.0,0.0
0.9704433679580688,0.802955687046051,0.26765188574790955,0.0,0.10837438702583312,0.19211822748184204,0.2249589562416077,0.2627257704734802,0.27093595266342163,0.26765188574790955,0.2627257704734802,0.2627257704734802,0.26765188574790955,0.27093595266342163,0.2692939341068268,0.2610837519168854,0.27093595266342163,0.27257800102233887,0.26765188574790955,0.26436781883239746,0.27257800102233887,0.27257800102233887,0.27093595266342163,0.26436781883239746,0.27093595266342163,0.28407225012779236,0.28407225012779236,0.2807881832122803,0.2889983654022217,0.29885056614875793,0.30706074833869934,0.3087027966976166,0.31527093052864075,0.3284072279930115,0.3382594287395477,0.33497536182403564,0.3481116592884064,0.366174042224884,0.3645320236682892,0.35960590839385986,0.366174042224884,0.36781609058380127,0.36124795675277704,0.3415435254573822,0.33990147709846497,0.33497536182403564,0.32019704580307007,0.30377668142318726,0.3103448152542114,0.3103448152542114,0.30213463306427,0.2972085475921631,0.29556649923324585,0.30377668142318726,0.3004926145076752,0.29228243231773376,0.30213463306427,0.3103448152542114,0.3103448152542114,0.3054187297821045,0.31527093052864075,0.32019704580307007,0.31855499744415283,0.32019704580307007,0.3218390941619873,0.3284072279930115,0.31527093052864075,0.32019704580307007,0.31527093052864075,0.32512316107749933,0.32019704580307007,0.3136289119720459,0.31527093052864075,0.31855499744415283,0.31198686361312866,0.30377668142318726,0.3103448152542114,0.31527093052864075,0.3054187297821045,0.3004926145076752,0.3054187297821045,0.3087027966976166,0.3054187297821045,0.30377668142318726,0.30706074833869934,0.30706074833869934,0.30377668142318726,0.29556649923324585,0.29885056614875793,0.3054187297821045,0.30377668142318726,0.29556649923324585,0.2972085475921631,0.3087027966976166,0.29885056614875793,0.2857142984867096,0.29556649923324585,0.3087027966976166,0.29885056614875793,0.29556649923324585,0.29556649923324585,0.3004926145076752,0.30213463306427,0.293924480676651,0.3004926145076752,0.3054187297821045,0.2972085475921631,0.29885056614875793,0.30377668142318726,0.30706074833869934,0.30377668142318726,0.29228243231773376,0.3004926145076752,0.31198686361312866,0.3004926145076752,0.30377668142318726,0.30377668142318726,0.3136289119720459,0.30213463306427,0.29885056614875793,0.30706074833869934,0.316912978887558,0.3054187297821045,0.2972085475921631,0.30706074833869934,0.3103448152542114,0.3136289119720459,0.316912978887558,0.3382594287395477,0.3563218414783478,0.35139572620391846,0.362889975309372,0.380952388048172,0.37274220585823054,0.357963889837265,0.3448275923728943,0.3481116592884064,0.3333333432674408,0.3004926145076752,0.28735631704330444,0.28407225012779236,0.28735631704330444,0.2824302017688751,0.27422001957893366,0.2824302017688751,0.2807881832122803,0.2807881832122803,0.27257800102233887,0.2857142984867096,0.2889983654022217,0.293924480676651,0.29228243231773376,0.3087027966976166,0.3284072279930115,0.4006568193435669,0.6239737272262573,0.9113300442695615,1.0,0.5796387791633606,0.08374384045600891,0.10837438702583312,0.2627257704734802,0.26765188574790955,0.2807881832122803,0.2972085475921631,0.3004926145076752,0.29556649923324585,0.28735631704330444,0.2906403839588165,0.3004926145076752,0.30213463306427,0.2906403839588165,0.2972085475921631,0.3054187297821045,0.3054187297821045,0.29228243231773376,0.3004926145076752,0.29885056614875793,0.3103448152542114,0.30377668142318726,0.3103448152542114,0.3234811127185821,0.3218390941619873,0.316912978887558,0.3284072279930115,0.3448275923728943,0.3448275923728943,0.0,0.0
1.0,0.9581817984580993,0.4109090864658356,0.0,0.12181818485260008,0.24181817471981049,0.2672727406024933,0.303636372089386,0.29636362195014954,0.2890909016132355,0.3054545521736145,0.3054545521736145,0.29818183183670044,0.3000000119209289,0.307272732257843,0.307272732257843,0.3000000119209289,0.3000000119209289,0.3145454525947571,0.307272732257843,0.303636372089386,0.3054545521736145,0.3163636326789856,0.3145454525947571,0.307272732257843,0.31272727251052856,0.3199999928474426,0.33090910315513605,0.33090910315513605,0.33454546332359314,0.3527272641658783,0.3672727346420288,0.3672727346420288,0.385454535484314,0.40727272629737854,0.4290909171104431,0.4345454573631287,0.44545453786849976,0.4654545485973358,0.4690909087657928,0.45818182826042175,0.45818182826042175,0.4472727179527282,0.4199999868869781,0.3872727155685425,0.3709090948104858,0.36000001430511475,0.34545454382896423,0.3272727131843567,0.3199999928474426,0.3199999928474426,0.31818181276321406,0.31818181276321406,0.32181817293167114,0.32181817293167114,0.31818181276321406,0.31090909242630005,0.3145454525947571,0.33090910315513605,0.3272727131843567,0.32363635301589966,0.32181817293167114,0.33636364340782166,0.3327272832393646,0.3272727131843567,0.3254545331001282,0.3327272832393646,0.33454546332359314,0.3254545331001282,0.3272727131843567,0.33636364340782166,0.3272727131843567,0.3163636326789856,0.3163636326789856,0.3290909230709076,0.32363635301589966,0.3163636326789856,0.31090909242630005,0.3163636326789856,0.3163636326789856,0.307272732257843,0.307272732257843,0.31272727251052856,0.3163636326789856,0.3000000119209289,0.303636372089386,0.3054545521736145,0.3054545521736145,0.29636362195014954,0.29636362195014954,0.307272732257843,0.307272732257843,0.3000000119209289,0.29636362195014954,0.31090909242630005,0.30909091234207153,0.30181819200515747,0.294545441865921,0.307272732257843,0.303636372089386,0.3000000119209289,0.2927272617816925,0.307272732257843,0.3054545521736145,0.29818183183670044,0.29636362195014954,0.30909091234207153,0.307272732257843,0.3000000119209289,0.2927272617816925,0.3054545521736145,0.30181819200515747,0.294545441865921,0.29818183183670044,0.307272732257843,0.30909091234207153,0.30181819200515747,0.30181819200515747,0.31272727251052856,0.307272732257843,0.307272732257843,0.303636372089386,0.31090909242630005,0.31090909242630005,0.31818181276321406,0.3327272832393646,0.35636362433433527,0.35818180441856384,0.36181819438934326,0.3527272641658783,0.34545454382896423,0.34363636374473566,0.33090910315513605,0.3145454525947571,0.31090909242630005,0.290909081697464,0.27636364102363586,0.2690909206867218,0.2800000011920929,0.27272728085517883,0.2690909206867218,0.2672727406024933,0.2745454609394073,0.2800000011920929,0.2709091007709503,0.27636364102363586,0.2872727215290069,0.294545441865921,0.294545441865921,0.30181819200515747,0.3400000035762787,0.49272727966308594,0.725454568862915,0.9945454597473145,0.896363615989685,0.3509090840816498,0.0,0.14000000059604645,0.2581818103790283,0.25999999046325684,0.2781818211078644,0.2781818211078644,0.28545454144477844,0.2890909016132355,0.2872727215290069,0.2872727215290069,0.2872727215290069,0.290909081697464,0.2836363613605499,0.28545454144477844,0.294545441865921,0.29636362195014954,0.2836363613605499,0.2890909016132355,0.30181819200515747,0.30181819200515747,0.2927272617816925,0.29636362195014954,0.3145454525947571,0.31272727251052856,0.31090909242630005,0.31272727251052856,0.33090910315513605,0.34363636374473566,0.3418181836605072,0.35636362433433527,0.0,0.0,0.0
1.0,0.8464646339416504,0.17777778208255768,0.026262626051902768,0.12727272510528564,0.1131313145160675,0.10101009905338287,0.08080808073282243,0.08484848588705063,0.07070706784725189,0.07676767557859421,0.06868686527013779,0.07676767557859421,0.06868686527013779,0.0787878781557083,0.06868686527013779,0.08080808073282243,0.08282828330993651,0.08888889104127885,0.08888889104127885,0.09898989647626877,0.10707070678472518,0.12121212482452393,0.13131313025951383,0.15555556118488312,0.16969697177410123,0.19797979295253756,0.21010100841522217,0.23232322931289673,0.2484848499298096,0.2646464705467224,0.27070707082748413,0.286868691444397,0.28484848141670227,0.28080809116363525,0.2585858702659607,0.24242424964904785,0.20606060326099396,0.1919191926717758,0.16565656661987305,0.15555556118488312,0.1434343457221985,0.1434343457221985,0.13131313025951383,0.13939394056797028,0.13535353541374207,0.1434343457221985,0.13737373054027557,0.1494949460029602,0.1434343457221985,0.1515151560306549,0.1434343457221985,0.15555556118488312,0.1494949460029602,0.16161616146564484,0.1494949460029602,0.15555556118488312,0.145454540848732,0.1515151560306549,0.13939394056797028,0.14747475087642667,0.13333334028720856,0.14141413569450378,0.1252525299787521,0.12929293513298035,0.1252525299787521,0.12323231995105743,0.1111111119389534,0.11919192224740982,0.1151515170931816,0.1131313145160675,0.10909090936183928,0.1111111119389534,0.10707070678472518,0.11717171967029572,0.13333334028720856,0.14141413569450378,0.1434343457221985,0.15959596633911133,0.1494949460029602,0.15959596633911133,0.14141413569450378,0.13333334028720856,0.13737373054027557,0.13131313025951383,0.1111111119389534,0.10909090936183928,0.09090909361839294,0.09292929619550705,0.08484848588705063,0.08686868846416473,0.08080808073282243,0.08888889104127885,0.08484848588705063,0.06666667014360428,0.0,0.08282828330993651,0.4707070589065552,0.9454545378684995,0.9252524971961976,0.2222222238779068,0.016161616891622543,0.1151515170931816,0.10101009905338287,0.09494949132204056,0.08080808073282243,0.07676767557859421,0.06464646756649017,0.07070706784725189,0.06262626498937607,0.06868686527013779,0.06060606241226196,0.0747474730014801,0.06666667014360428,0.0747474730014801,0.07070706784725189,0.08282828330993651,0.08888889104127885,0.0,0.0,0.0,0.0,0.0,0.0,0.0,0.0,0.0,0.0,0.0,0.0,0.0,0.0,0.0,0.0,0.0,0.0,0.0,0.0,0.0,0.0,0.0,0.0,0.0,0.0,0.0,0.0,0.0,0.0,0.0,0.0,0.0,0.0,0.0,0.0,0.0,0.0,0.0,0.0,0.0,0.0,0.0,0.0,0.0,0.0,0.0,0.0,0.0,0.0,0.0,0.0,0.0,0.0,0.0,0.0,0.0,0.0,0.0,0.0,0.0,0.0,0.0,0.0,0.0,0.0,0.0,0.0,0.0,0.0,0.0
1.0,0.6204379796981812,0.0036496350076049566,0.058394160121679306,0.07664233446121216,0.0802919715642929,0.07664233446121216,0.0729926973581314,0.0656934306025505,0.0656934306025505,0.0729926973581314,0.062043797224760056,0.0656934306025505,0.07664233446121216,0.062043797224760056,0.06934306770563126,0.058394160121679306,0.058394160121679306,0.0656934306025505,0.06934306770563126,0.06934306770563126,0.07664233446121216,0.06934306770563126,0.0729926973581314,0.0656934306025505,0.0656934306025505,0.062043797224760056,0.058394160121679306,0.058394160121679306,0.05474452674388885,0.04744525626301765,0.04014598578214645,0.01824817433953285,0.02554744482040405,0.04014598578214645,0.062043797224760056,0.09124087542295457,0.1167883202433586,0.13503649830818176,0.1605839431285858,0.1605839431285858,0.17883211374282837,0.1751824766397476,0.17153283953666687,0.17153283953666687,0.17153283953666687,0.16423358023166656,0.17153283953666687,0.15693430602550507,0.17153283953666687,0.16423358023166656,0.15328466892242432,0.14963503181934357,0.15693430602550507,0.15328466892242432,0.1605839431285858,0.14963503181934357,0.14963503181934357,0.1459853947162628,0.15328466892242432,0.1459853947162628,0.1386861354112625,0.14233577251434326,0.1459853947162628,0.1459853947162628,0.1605839431285858,0.17883211374282837,0.19343066215515137,0.2043795585632324,0.21532846987247467,0.237226277589798,0.24817518889904025,0.2335766404867172,0.24087591469287872,0.237226277589798,0.2664233446121216,0.20072992146015167,0.17883211374282837,0.15328466892242432,0.1459853947162628,0.13503649830818176,0.14233577251434326,0.1386861354112625,0.14233577251434326,0.13503649830818176,0.1386861354112625,0.12043795734643936,0.058394160121679306,0.0,0.062043797224760056,0.3832116723060608,0.9525547623634337,0.8759124279022216,0.0729926973581314,0.03284671530127525,0.08759123831987381,0.09124087542295457,0.08759123831987381,0.09854014962911603,0.0948905125260353,0.08394160866737364,0.0948905125260353,0.09124087542295457,0.08759123831987381,0.08759123831987381,0.07664233446121216,0.07664233446121216,0.0948905125260353,0.08759123831987381,0.08759123831987381,0.0,0.0,0.0,0.0,0.0,0.0,0.0,0.0,0.0,0.0,0.0,0.0,0.0,0.0,0.0,0.0,0.0,0.0,0.0,0.0,0.0,0.0,0.0,0.0,0.0,0.0,0.0,0.0,0.0,0.0,0.0,0.0,0.0,0.0,0.0,0.0,0.0,0.0,0.0,0.0,0.0,0.0,0.0,0.0,0.0,0.0,0.0,0.0,0.0,0.0,0.0,0.0,0.0,0.0,0.0,0.0,0.0,0.0,0.0,0.0,0.0,0.0,0.0,0.0,0.0,0.0,0.0,0.0,0.0,0.0,0.0,0.0,0.0,0.0,0.0,0.0,0.0,0.0,0.0
0.9797618985176086,0.8702380657196046,0.4166666567325592,0.0,0.18095238506793973,0.20119047164916992,0.13809524476528168,0.13452380895614624,0.14166666567325592,0.14404761791229248,0.14642857015132904,0.14523810148239136,0.14523810148239136,0.15238095819950104,0.1666666716337204,0.17023809254169464,0.17023809254169464,0.17499999701976776,0.19404761493206024,0.20595237612724304,0.20476190745830533,0.22738094627857208,0.24880951642990112,0.25357142090797424,0.2690476179122925,0.2964285612106323,0.32499998807907104,0.3285714387893677,0.33095237612724304,0.3273809552192688,0.3261904716491699,0.3095238208770752,0.2797619104385376,0.2380952388048172,0.21785713732242584,0.18809524178504944,0.16904762387275696,0.16190476715564728,0.16428571939468384,0.15595237910747528,0.15000000596046448,0.15000000596046448,0.15952381491661072,0.1547619104385376,0.15595237910747528,0.1607142835855484,0.16785714030265808,0.16547618806362152,0.16904762387275696,0.16785714030265808,0.1726190447807312,0.16785714030265808,0.16547618806362152,0.16904762387275696,0.16547618806362152,0.1607142835855484,0.15952381491661072,0.15833333134651184,0.16428571939468384,0.15952381491661072,0.15357142686843872,0.1607142835855484,0.16309523582458496,0.15595237910747528,0.1488095223903656,0.1547619104385376,0.15833333134651184,0.1547619104385376,0.17023809254169464,0.18571428954601288,0.190476194024086,0.18809524178504944,0.18571428954601288,0.19880951941013336,0.20714285969734192,0.1964285671710968,0.19285714626312253,0.18809524178504944,0.1785714328289032,0.15833333134651184,0.1488095223903656,0.1428571492433548,0.15000000596046448,0.14523810148239136,0.13571429252624512,0.13809524476528168,0.15952381491661072,0.24285714328289032,0.46666666865348816,0.7785714268684387,1.0,0.9404761791229248,0.5285714268684387,0.0714285746216774,0.16428571939468384,0.24642856419086456,0.1666666716337204,0.14404761791229248,0.15833333134651184,0.15238095819950104,0.1428571492433548,0.15119047462940216,0.15952381491661072,0.15714286267757416,0.1607142835855484,0.16785714030265808,0.17380952835083008,0.18095238506793973,0.0,0.0,0.0,0.0,0.0,0.0,0.0,0.0,0.0,0.0,0.0,0.0,0.0,0.0,0.0,0.0,0.0,0.0,0.0,0.0,0.0,0.0,0.0,0.0,0.0,0.0,0.0,0.0,0.0,0.0,0.0,0.0,0.0,0.0,0.0,0.0,0.0,0.0,0.0,0.0,0.0,0.0,0.0,0.0,0.0,0.0,0.0,0.0,0.0,0.0,0.0,0.0,0.0,0.0,0.0,0.0,0.0,0.0,0.0,0.0,0.0,0.0,0.0,0.0,0.0,0.0,0.0,0.0,0.0,0.0,0.0,0.0,0.0,0.0,0.0,0.0,0.0,0.0,0.0,0.0,0.0
0.9572649598121645,0.9145299196243286,0.4495726525783538,0.0,0.1111111119389534,0.34188035130500793,0.43931624293327326,0.4632478654384613,0.4717948734760285,0.46153846383094793,0.4752136766910553,0.49743589758872986,0.5094017386436462,0.528205156326294,0.5452991724014281,0.5658119916915894,0.5829060077667236,0.5880342125892639,0.5846154093742371,0.5811966061592102,0.5863248109817505,0.5931624174118042,0.5914530158042908,0.6017094254493712,0.6153846383094788,0.6222222447395325,0.6393162608146667,0.6529914736747742,0.6769230961799622,0.6820513010025024,0.6769230961799622,0.6666666865348816,0.6512820720672609,0.6273504495620728,0.5897436141967772,0.5658119916915894,0.5452991724014281,0.5316239595413208,0.5111111402511597,0.4991452991962433,0.4991452991962433,0.49743589758872986,0.49059829115867615,0.4888888895511627,0.49401709437370306,0.49059829115867615,0.4888888895511627,0.49401709437370306,0.5025641322135925,0.5008547306060791,0.4991452991962433,0.4957264959812164,0.5025641322135925,0.49401709437370306,0.49059829115867615,0.48205128312110895,0.4803418815135956,0.48205128312110895,0.4769230782985687,0.47863247990608215,0.4854700863361359,0.4888888895511627,0.4957264959812164,0.5111111402511597,0.5333333611488342,0.5470085740089417,0.5470085740089417,0.5350427627563477,0.5435897707939148,0.5470085740089417,0.528205156326294,0.5196581482887268,0.5145299434661865,0.49743589758872986,0.4752136766910553,0.470085471868515,0.4769230782985687,0.47863247990608215,0.470085471868515,0.46666666865348816,0.470085471868515,0.45811966061592096,0.4564102590084076,0.4837606847286224,0.6102564334869385,0.8290598392486572,1.0,0.8632478713989258,0.3726495802402496,0.01880341954529285,0.19316239655017847,0.4000000059604645,0.4632478654384613,0.4598290622234344,0.46153846383094793,0.4717948734760285,0.4854700863361359,0.49401709437370306,0.49743589758872986,0.5008547306060791,0.5145299434661865,0.5247863531112671,0.5299145579338074,0.0,0.0,0.0,0.0,0.0,0.0,0.0,0.0,0.0,0.0,0.0,0.0,0.0,0.0,0.0,0.0,0.0,0.0,0.0,0.0,0.0,0.0,0.0,0.0,0.0,0.0,0.0,0.0,0.0,0.0,0.0,0.0,0.0,0.0,0.0,0.0,0.0,0.0,0.0,0.0,0.0,0.0,0.0,0.0,0.0,0.0,0.0,0.0,0.0,0.0,0.0,0.0,0.0,0.0,0.0,0.0,0.0,0.0,0.0,0.0,0.0,0.0,0.0,0.0,0.0,0.0,0.0,0.0,0.0,0.0,0.0,0.0,0.0,0.0,0.0,0.0,0.0,0.0,0.0,0.0,0.0,0.0,0.0,0.0,0.0,0.0
1.0,0.8910505771636963,0.4280155599117279,0.0,0.08171205967664719,0.2256809324026108,0.28015562891960144,0.30739298462867737,0.3346303403377533,0.330739289522171,0.31128403544425964,0.31906613707542414,0.3385213911533356,0.330739289522171,0.31128403544425964,0.30739298462867737,0.3151750862598419,0.3151750862598419,0.29182878136634827,0.28404667973518366,0.29571983218193054,0.29182878136634827,0.2723735272884369,0.2684824764728546,0.26070037484169006,0.25680932402610773,0.24513618648052213,0.24902723729610443,0.25680932402610773,0.25680932402610773,0.26459142565727234,0.28015562891960144,0.31128403544425964,0.3385213911533356,0.3618676960468292,0.4046692550182343,0.4513618648052216,0.4941634237766266,0.49805447459220886,0.5097275972366333,0.5214007496833801,0.5136186480522156,0.49805447459220886,0.4902723729610443,0.4902723729610443,0.4902723729610443,0.46692606806755066,0.45525291562080383,0.4747081696987152,0.48249027132987976,0.45525291562080383,0.44357976317405695,0.45525291562080383,0.4630350172519684,0.4474708139896393,0.4513618648052216,0.4630350172519684,0.45914396643638605,0.45914396643638605,0.46692606806755066,0.4747081696987152,0.47859922051429754,0.47859922051429754,0.4941634237766266,0.5214007496833801,0.5252918004989624,0.5097275972366333,0.5291828513145447,0.5408560037612915,0.5291828513145447,0.49805447459220886,0.48249027132987976,0.45914396643638605,0.4474708139896393,0.4241245090961456,0.4085603058338165,0.416342407464981,0.4280155599117279,0.4046692550182343,0.4046692550182343,0.4280155599117279,0.43579766154289246,0.47859922051429754,0.6575875282287598,0.9377431869506837,0.9805447459220886,0.6653696298599243,0.29571983218193054,0.023346303030848503,0.13229571282863617,0.21011672914028168,0.28015562891960144,0.32295718789100647,0.3385213911533356,0.32684823870658875,0.31906613707542414,0.32295718789100647,0.330739289522171,0.30739298462867737,0.2996108829975128,0.31128403544425964,0.3035019338130951,0.0,0.0,0.0,0.0,0.0,0.0,0.0,0.0,0.0,0.0,0.0,0.0,0.0,0.0,0.0,0.0,0.0,0.0,0.0,0.0,0.0,0.0,0.0,0.0,0.0,0.0,0.0,0.0,0.0,0.0,0.0,0.0,0.0,0.0,0.0,0.0,0.0,0.0,0.0,0.0,0.0,0.0,0.0,0.0,0.0,0.0,0.0,0.0,0.0,0.0,0.0,0.0,0.0,0.0,0.0,0.0,0.0,0.0,0.0,0.0,0.0,0.0,0.0,0.0,0.0,0.0,0.0,0.0,0.0,0.0,0.0,0.0,0.0,0.0,0.0,0.0,0.0,0.0,0.0,0.0,0.0,0.0,0.0,0.0,0.0,0.0,0.0
1.0,0.7841269969940186,0.6095238327980042,0.3555555641651153,0.20952381193637848,0.15555556118488312,0.20317460596561432,0.21904762089252472,0.2507936656475067,0.22539682686328888,0.24444444477558133,0.24126984179019928,0.2507936656475067,0.2507936656475067,0.2730158865451813,0.26349207758903503,0.2761904895305633,0.2761904895305633,0.3079365193843841,0.2825396955013275,0.3238095343112945,0.3333333432674408,0.3333333432674408,0.34285715222358704,0.3841269910335541,0.3936507999897003,0.43809524178504944,0.45396825671195984,0.48571428656578064,0.48571428656578064,0.5301587581634521,0.5333333611488342,0.5682539939880371,0.5587301850318909,0.5428571701049805,0.48253968358039856,0.45079365372657776,0.4000000059604645,0.4000000059604645,0.3555555641651153,0.35873016715049744,0.3365079462528229,0.3460317552089691,0.34285715222358704,0.3523809611797333,0.3238095343112945,0.3523809611797333,0.3333333432674408,0.34285715222358704,0.3238095343112945,0.3492063581943512,0.3301587402820587,0.3460317552089691,0.3174603283405304,0.3396825492382049,0.3174603283405304,0.3365079462528229,0.3206349313259125,0.3174603283405304,0.31111112236976624,0.3301587402820587,0.31111112236976624,0.3238095343112945,0.29523810744285583,0.3079365193843841,0.2920635044574737,0.3047619163990021,0.2825396955013275,0.29523810744285583,0.2888889014720917,0.3238095343112945,0.3047619163990021,0.32698413729667664,0.32698413729667664,0.3396825492382049,0.29523810744285583,0.3238095343112945,0.2888889014720917,0.2888889014720917,0.2666666805744171,0.2698412835597992,0.2507936656475067,0.26349207758903503,0.2222222238779068,0.24761904776096344,0.2222222238779068,0.23174603283405304,0.21269841492176053,0.22857142984867093,0.21904762089252472,0.22857142984867093,0.21269841492176053,0.22539682686328888,0.21269841492176053,0.23492063581943512,0.2539682686328888,0.3079365193843841,0.4126984179019928,0.5269841551780701,0.46984127163887024,0.3333333432674408,0.43809524178504944,0.6476190686225891,0.6222222447395325,0.41904762387275696,0.21904762089252472,0.08571428805589677,0.0,0.03809523954987526,0.07301587611436845,0.13650794327259064,0.13650794327259064,0.15238095819950104,0.14920635521411896,0.15555556118488312,0.15555556118488312,0.1746031790971756,0.14920635521411896,0.1746031790971756,0.1587301641702652,0.19365079700946808,0.190476194024086,0.22539682686328888,0.0,0.0,0.0,0.0,0.0,0.0,0.0,0.0,0.0,0.0,0.0,0.0,0.0,0.0,0.0,0.0,0.0,0.0,0.0,0.0,0.0,0.0,0.0,0.0,0.0,0.0,0.0,0.0,0.0,0.0,0.0,0.0,0.0,0.0,0.0,0.0,0.0,0.0,0.0,0.0,0.0,0.0,0.0,0.0,0.0,0.0,0.0,0.0,0.0,0.0,0.0,0.0,0.0,0.0,0.0,0.0,0.0,0.0,0.0,0.0,0.0,0.0,0.0,0.0,0.0,0.0
1.0,0.8998458981513977,0.33127889037132263,0.03389830514788628,0.26810476183891296,0.3035439252853393,0.30816641449928284,0.3389830589294433,0.32665640115737915,0.32049307227134705,0.33281973004341125,0.3343605399131775,0.33281973004341125,0.33744221925735474,0.3482280373573303,0.3574730455875397,0.3528505265712738,0.3528505265712738,0.365177184343338,0.375963032245636,0.37288135290145874,0.36825886368751526,0.375963032245636,0.3852080106735229,0.3821263611316681,0.3852080106735229,0.3913713395595551,0.3975346684455872,0.3959938287734985,0.39445301890373224,0.400616317987442,0.3975346684455872,0.3929121792316437,0.3898304998874664,0.3929121792316437,0.3929121792316437,0.3975346684455872,0.40832048654556274,0.4268104732036591,0.4329738020896912,0.4221879839897156,0.40986132621765137,0.40523883700370794,0.3959938287734985,0.3790446817874909,0.36979970335960394,0.37134051322937006,0.3667180240154266,0.3605546951293945,0.3636363744735718,0.36979970335960394,0.3790446817874909,0.3775038421154022,0.3805855214595794,0.3898304998874664,0.400616317987442,0.3990755081176758,0.39445301890373224,0.400616317987442,0.40523883700370794,0.3975346684455872,0.3898304998874664,0.38828969001770014,0.3913713395595551,0.3852080106735229,0.3805855214595794,0.3805855214595794,0.375963032245636,0.3667180240154266,0.3636363744735718,0.36825886368751526,0.3636363744735718,0.3574730455875397,0.35593220591545105,0.3605546951293945,0.3605546951293945,0.3574730455875397,0.3543913662433624,0.3574730455875397,0.3528505265712738,0.3574730455875397,0.3528505265712738,0.3636363744735718,0.3790446817874909,0.3975346684455872,0.400616317987442,0.4175654947757721,0.42064714431762695,0.40832048654556274,0.3929121792316437,0.3790446817874909,0.37442219257354736,0.365177184343338,0.3466871976852417,0.34976887702941895,0.34360554814338684,0.3420647084712982,0.34514638781547546,0.3466871976852417,0.34976887702941895,0.34360554814338684,0.5423728823661804,0.9429892301559448,0.9984591603279112,0.4791987538337708,0.0,0.23728813230991364,0.3189522325992584,0.3158705830574036,0.3389830589294433,0.3405238687992096,0.33744221925735474,0.33590137958526606,0.3389830589294433,0.34976887702941895,0.3528505265712738,0.3420647084712982,0.3389830589294433,0.3528505265712738,0.3543913662433624,0.3528505265712738,0.3543913662433624,0.36825886368751526,0.36825886368751526,0.36825886368751526,0.0,0.0,0.0,0.0,0.0,0.0,0.0,0.0,0.0,0.0,0.0,0.0,0.0,0.0,0.0,0.0,0.0,0.0,0.0,0.0,0.0,0.0,0.0,0.0,0.0,0.0,0.0,0.0,0.0,0.0,0.0,0.0,0.0,0.0,0.0,0.0,0.0,0.0,0.0,0.0,0.0,0.0,0.0,0.0,0.0,0.0,0.0,0.0,0.0,0.0,0.0,0.0,0.0,0.0,0.0,0.0,0.0,0.0,0.0,0.0,0.0,0.0,0.0,0.0
1.0,0.5373961329460144,0.38504156470298767,0.2603878080844879,0.21883656084537503,0.1662049889564514,0.13850416243076324,0.13573406636714935,0.12188365310430525,0.13850416243076324,0.12188365310430525,0.11080332100391388,0.11357340961694716,0.11634349077939989,0.11357340961694716,0.11080332100391388,0.11634349077939989,0.10803323984146118,0.11357340961694716,0.11911357194185256,0.10803323984146118,0.11634349077939989,0.10803323984146118,0.10249307751655579,0.11634349077939989,0.11357340961694716,0.12188365310430525,0.12465374171733856,0.13019390404224396,0.14404432475566864,0.15789473056793213,0.1689750701189041,0.1717451512813568,0.1939058154821396,0.2049861550331116,0.22437673807144165,0.2437673062086105,0.2576177418231964,0.2631579041481018,0.2686980664730072,0.2714681327342987,0.2576177418231964,0.2437673062086105,0.22991690039634705,0.2132963985204697,0.1939058154821396,0.1745152324438095,0.16343490779399872,0.15235456824302673,0.1468144059181213,0.14958448708057404,0.13573406636714935,0.12742382287979123,0.13850416243076324,0.12465374171733856,0.12742382287979123,0.11911357194185256,0.13019390404224396,0.12188365310430525,0.11357340961694716,0.12742382287979123,0.11634349077939989,0.11634349077939989,0.12465374171733856,0.11634349077939989,0.12188365310430525,0.11080332100391388,0.11634349077939989,0.10526315867900848,0.11911357194185256,0.11080332100391388,0.11634349077939989,0.10526315867900848,0.09972298890352248,0.10526315867900848,0.10249307751655579,0.0969529077410698,0.09972298890352248,0.0969529077410698,0.09141274541616441,0.0969529077410698,0.09418282657861708,0.0969529077410698,0.09141274541616441,0.09141274541616441,0.09418282657861708,0.0858725756406784,0.0969529077410698,0.09418282657861708,0.0831024944782257,0.0886426568031311,0.09972298890352248,0.09141274541616441,0.09418282657861708,0.0831024944782257,0.09141274541616441,0.09141274541616441,0.09418282657861708,0.09141274541616441,0.09141274541616441,0.09418282657861708,0.10526315867900848,0.11634349077939989,0.11911357194185256,0.11634349077939989,0.13573406636714935,0.1689750701189041,0.15789473056793213,0.15512464940547943,0.13573406636714935,0.13850416243076324,0.13019390404224396,0.11080332100391388,0.09141274541616441,0.074792243540287,0.074792243540287,0.06371191143989563,0.074792243540287,0.06371191143989563,0.060941826552152634,0.060941826552152634,0.060941826552152634,0.002770083025097847,0.047091413289308555,0.4293628931045532,0.9722991585731505,0.7950138449668883,0.37950137257575994,0.2631579041481018,0.16343490779399872,0.09972298890352248,0.05263157933950424,0.03047091327607632,0.024930747225880623,0.024930747225880623,0.01939058117568493,0.01662049815058708,0.01662049815058708,0.013850415125489233,0.01662049815058708,0.008310249075293541,0.01662049815058708,0.013850415125489233,0.01939058117568493,0.0,0.013850415125489233,0.005540166050195694,0.005540166050195694,0.0,0.013850415125489233,0.01662049815058708,0.0,0.0,0.0,0.0,0.0,0.0,0.0,0.0,0.0,0.0,0.0,0.0,0.0,0.0,0.0,0.0,0.0,0.0,0.0,0.0,0.0,0.0,0.0,0.0,0.0,0.0,0.0,0.0,0.0,0.0,0.0,0.0,0.0,0.0,0.0,0.0,0.0,0.0
1.0,0.7340720295906067,0.5096952915191649,0.32409971952438354,0.22714681923389435,0.12465374171733856,0.049861494451761246,0.027700830250978466,0.008310249075293541,0.011080332100391388,0.01662049815058708,0.01939058117568493,0.033240996301174164,0.033240996301174164,0.03878116235136986,0.04155124723911285,0.04155124723911285,0.03601108118891716,0.05263157933950424,0.049861494451761246,0.047091413289308555,0.05263157933950424,0.04432132840156555,0.060941826552152634,0.058171745389699936,0.08033241331577301,0.0831024944782257,0.10803323984146118,0.12465374171733856,0.14127424359321594,0.1662049889564514,0.18836565315723416,0.2160664796829224,0.19944597780704496,0.20775623619556427,0.19944597780704496,0.1828254908323288,0.1800553947687149,0.16343490779399872,0.16066482663154602,0.15512464940547943,0.15512464940547943,0.14127424359321594,0.14404432475566864,0.14127424359321594,0.14404432475566864,0.14127424359321594,0.14958448708057404,0.13573406636714935,0.13573406636714935,0.14958448708057404,0.13573406636714935,0.13296398520469663,0.12465374171733856,0.13573406636714935,0.13850416243076324,0.12465374171733856,0.13850416243076324,0.13019390404224396,0.13850416243076324,0.13296398520469663,0.13296398520469663,0.13573406636714935,0.14958448708057404,0.1800553947687149,0.1772853136062622,0.21883656084537503,0.2465374022722244,0.24930748343467712,0.22714681923389435,0.21052631735801697,0.10526315867900848,0.0969529077410698,0.0858725756406784,0.0969529077410698,0.10249307751655579,0.10526315867900848,0.10526315867900848,0.10249307751655579,0.11357340961694716,0.09972298890352248,0.14404432475566864,0.37950137257575994,0.7340720295906067,0.9833794832229614,0.7451523542404176,0.5290858745574951,0.31024929881095886,0.22991690039634705,0.13296398520469663,0.03601108118891716,0.022160664200782772,0.0,0.01662049815058708,0.01939058117568493,0.022160664200782772,0.03047091327607632,0.03601108118891716,0.04155124723911285,0.04155124723911285,0.058171745389699936,0.049861494451761246,0.0,0.0,0.0,0.0,0.0,0.0,0.0,0.0,0.0,0.0,0.0,0.0,0.0,0.0,0.0,0.0,0.0,0.0,0.0,0.0,0.0,0.0,0.0,0.0,0.0,0.0,0.0,0.0,0.0,0.0,0.0,0.0,0.0,0.0,0.0,0.0,0.0,0.0,0.0,0.0,0.0,0.0,0.0,0.0,0.0,0.0,0.0,0.0,0.0,0.0,0.0,0.0,0.0,0.0,0.0,0.0,0.0,0.0,0.0,0.0,0.0,0.0,0.0,0.0,0.0,0.0,0.0,0.0,0.0,0.0,0.0,0.0,0.0,0.0,0.0,0.0,0.0,0.0,0.0,0.0,0.0,0.0,0.0,0.0,0.0,0.0,0.0
0.9532163739204407,0.5467836260795593,0.1959064304828644,0.06725145876407623,0.05263157933950424,0.04093567281961441,0.02631578966975212,0.023391813039779663,0.0,0.017543859779834747,0.023391813039779663,0.023391813039779663,0.04093567281961441,0.04970760270953178,0.03216374292969704,0.061403509229421616,0.061403509229421616,0.0760233923792839,0.08187134563922882,0.09941520541906355,0.11988303810358047,0.14912280440330505,0.17543859779834747,0.2017543911933899,0.2163742631673813,0.2222222238779068,0.23684211075305936,0.2456140369176865,0.23976607620716092,0.21929824352264404,0.18713450431823728,0.14035087823867795,0.10233917832374571,0.07894736528396606,0.06725145876407623,0.04970760270953178,0.03216374292969704,0.023391813039779663,0.03216374292969704,0.03216374292969704,0.04093567281961441,0.029239766299724575,0.03216374292969704,0.03801169618964195,0.03216374292969704,0.03216374292969704,0.023391813039779663,0.03801169618964195,0.03801169618964195,0.04970760270953178,0.06432748585939407,0.06432748585939407,0.1111111119389534,0.11403508484363556,0.11403508484363556,0.09064327180385587,0.05847953259944916,0.035087719559669495,0.023391813039779663,0.011695906519889832,0.017543859779834747,0.014619883149862288,0.008771929889917374,0.02631578966975212,0.035087719559669495,0.04970760270953178,0.20467835664749143,0.5877193212509155,1.0,0.6491228342056273,0.18713450431823728,0.05263157933950424,0.03216374292969704,0.020467836409807205,0.011695906519889832,0.008771929889917374,0.0,0.017543859779834747,0.008771929889917374,0.020467836409807205,0.017543859779834747,0.02631578966975212,0.0,0.0,0.0,0.0,0.0,0.0,0.0,0.0,0.0,0.0,0.0,0.0,0.0,0.0,0.0,0.0,0.0,0.0,0.0,0.0,0.0,0.0,0.0,0.0,0.0,0.0,0.0,0.0,0.0,0.0,0.0,0.0,0.0,0.0,0.0,0.0,0.0,0.0,0.0,0.0,0.0,0.0,0.0,0.0,0.0,0.0,0.0,0.0,0.0,0.0,0.0,0.0,0.0,0.0,0.0,0.0,0.0,0.0,0.0,0.0,0.0,0.0,0.0,0.0,0.0,0.0,0.0,0.0,0.0,0.0,0.0,0.0,0.0,0.0,0.0,0.0,0.0,0.0,0.0,0.0,0.0,0.0,0.0,0.0,0.0,0.0,0.0,0.0,0.0,0.0,0.0,0.0,0.0,0.0,0.0,0.0,0.0,0.0,0.0,0.0,0.0,0.0,0.0,0.0,0.0,0.0,0.0
0.9515669345855712,0.7777777910232544,0.09971509873867035,0.0683760717511177,0.07407407462596893,0.0113960113376379,0.025641025975346565,0.014245014637708664,0.017094017937779427,0.0655270665884018,0.1766381710767746,0.2564102709293365,0.3019942939281464,0.3105413019657135,0.34188035130500793,0.3304843306541443,0.3703703582286834,0.37321937084198,0.3817663788795471,0.38746437430381775,0.4131053984165192,0.42165243625640875,0.4672364592552185,0.4643874764442444,0.49002850055694575,0.504273533821106,0.5413105487823486,0.5384615659713745,0.5641025900840759,0.5327635407447815,0.504273533821106,0.4501424431800842,0.43019944429397583,0.36752137541770935,0.36182335019111633,0.31339031457901,0.3019942939281464,0.2735042870044708,0.282051295042038,0.25356125831604004,0.2678062617778778,0.2735042870044708,0.2735042870044708,0.2649572789669037,0.2905983030796051,0.2621082663536072,0.2849002778530121,0.2649572789669037,0.282051295042038,0.2592592537403106,0.30484330654144287,0.3076923191547394,0.34188035130500793,0.36182335019111633,0.38746437430381775,0.3817663788795471,0.37891736626625055,0.2849002778530121,0.2678062617778778,0.23076923191547397,0.21937322616577148,0.21082621812820437,0.21082621812820437,0.1766381710767746,0.20512820780277247,0.202279195189476,0.2136752158403397,0.23076923191547397,0.3561253547668457,0.6324786543846129,1.0,0.621082603931427,0.0227920226752758,0.10826210677623747,0.05413105338811874,0.0,0.037037037312984473,0.0,0.0655270665884018,0.12820513546466827,0.23361822962760925,0.27635326981544495,0.3105413019657135,0.31339031457901,0.3333333432674408,0.0,0.0,0.0,0.0,0.0,0.0,0.0,0.0,0.0,0.0,0.0,0.0,0.0,0.0,0.0,0.0,0.0,0.0,0.0,0.0,0.0,0.0,0.0,0.0,0.0,0.0,0.0,0.0,0.0,0.0,0.0,0.0,0.0,0.0,0.0,0.0,0.0,0.0,0.0,0.0,0.0,0.0,0.0,0.0,0.0,0.0,0.0,0.0,0.0,0.0,0.0,0.0,0.0,0.0,0.0,0.0,0.0,0.0,0.0,0.0,0.0,0.0,0.0,0.0,0.0,0.0,0.0,0.0,0.0,0.0,0.0,0.0,0.0,0.0,0.0,0.0,0.0,0.0,0.0,0.0,0.0,0.0,0.0,0.0,0.0,0.0,0.0,0.0,0.0,0.0,0.0,0.0,0.0,0.0,0.0,0.0,0.0,0.0,0.0,0.0,0.0,0.0,0.0,0.0
0.9617021083831789,0.7574468255043029,0.4170212745666504,0.008510638028383255,0.0382978729903698,0.14468085765838623,0.1531914919614792,0.19148936867713928,0.21276596188545227,0.23404255509376523,0.2212765961885452,0.2042553126811981,0.21276596188545227,0.2212765961885452,0.21702127158641812,0.20000000298023224,0.19148936867713928,0.1872340440750122,0.21276596188545227,0.1957446783781052,0.17872340977191925,0.17872340977191925,0.1872340440750122,0.18297871947288516,0.17872340977191925,0.17872340977191925,0.17872340977191925,0.1702127605676651,0.17446808516979215,0.18297871947288516,0.1872340440750122,0.19148936867713928,0.19148936867713928,0.2212765961885452,0.25531914830207825,0.25957447290420527,0.2808510661125183,0.33191490173339844,0.37872341275215143,0.4085106253623962,0.4255319237709045,0.45106384158134466,0.44255319237709045,0.4297872483730316,0.41276594996452326,0.4297872483730316,0.41276594996452326,0.4042553305625916,0.39574468135833746,0.41276594996452326,0.41276594996452326,0.3872340321540833,0.37872341275215143,0.3914893567562103,0.3872340321540833,0.3744680881500244,0.37872341275215143,0.39574468135833746,0.38297873735427856,0.3872340321540833,0.38297873735427856,0.4000000059604645,0.3914893567562103,0.3744680881500244,0.39574468135833746,0.4212765991687775,0.45106384158134466,0.4638297855854034,0.4553191363811493,0.4893617033958435,0.46808511018753046,0.4212765991687775,0.4000000059604645,0.4042553305625916,0.38297873735427856,0.3531914949417114,0.32765957713127136,0.3404255211353302,0.33191490173339844,0.3191489279270172,0.32765957713127136,0.34893617033958435,0.3531914949417114,0.3361702263355255,0.3404255211353302,0.3617021143436432,0.4085106253623962,0.5702127814292908,0.8212766051292419,1.0,0.8297872543334962,0.4212765991687775,0.0,0.08510638028383255,0.1872340440750122,0.21276596188545227,0.22553192079067233,0.27659574151039124,0.27659574151039124,0.27659574151039124,0.2638297975063324,0.27234041690826416,0.2680850923061371,0.2468085139989853,0.2425531893968582,0.25531914830207825,0.0,0.0,0.0,0.0,0.0,0.0,0.0,0.0,0.0,0.0,0.0,0.0,0.0,0.0,0.0,0.0,0.0,0.0,0.0,0.0,0.0,0.0,0.0,0.0,0.0,0.0,0.0,0.0,0.0,0.0,0.0,0.0,0.0,0.0,0.0,0.0,0.0,0.0,0.0,0.0,0.0,0.0,0.0,0.0,0.0,0.0,0.0,0.0,0.0,0.0,0.0,0.0,0.0,0.0,0.0,0.0,0.0,0.0,0.0,0.0,0.0,0.0,0.0,0.0,0.0,0.0,0.0,0.0,0.0,0.0,0.0,0.0,0.0,0.0,0.0,0.0,0.0,0.0,0.0,0.0,0.0,0.0,0.0
1.0,0.6171284914016724,0.239294707775116,0.11335012316703796,0.08060453087091446,0.09068010002374648,0.08564231544733046,0.08564231544733046,0.08564231544733046,0.08312342315912247,0.08312342315912247,0.10579345375299452,0.13602015376091003,0.05289672687649727,0.07052896916866302,0.11335012316703796,0.10075566917657852,0.130982369184494,0.14357683062553403,0.16372795403003693,0.16876573860645294,0.1662468463182449,0.20654912292957303,0.239294707775116,0.27204030752182007,0.3073047995567322,0.32997480034828186,0.3375314772129059,0.2745591998100281,0.3148614466190338,0.28967255353927607,0.23677581548690796,0.21158690750598907,0.20654912292957303,0.0931989923119545,0.125944584608078,0.10831234604120255,0.11335012316703796,0.11335012316703796,0.09823677688837053,0.10075566917657852,0.06801007688045502,0.11838790774345397,0.1662468463182449,0.012594458647072315,0.08564231544733046,0.12342569231987,0.10327456146478652,0.13602015376091003,0.1586901694536209,0.20403023064136505,0.15113350749015808,0.15617129206657407,0.241813600063324,0.14609572291374207,0.10075566917657852,0.11838790774345397,0.17884130775928497,0.010075566358864307,0.08564231544733046,0.11335012316703796,0.062972292304039,0.12090680003166197,0.17128463089466095,0.0,0.05289672687649727,0.19395466148853305,0.5491183996200562,0.9269521236419677,0.6549118161201477,0.26700252294540405,0.07808564603328703,0.07304786145687102,0.08060453087091446,0.060453400015830994,0.05289672687649727,0.05289672687649727,0.05541561543941498,0.05541561543941498,0.05037783458828926,0.05289672687649727,0.0,0.0,0.0,0.0,0.0,0.0,0.0,0.0,0.0,0.0,0.0,0.0,0.0,0.0,0.0,0.0,0.0,0.0,0.0,0.0,0.0,0.0,0.0,0.0,0.0,0.0,0.0,0.0,0.0,0.0,0.0,0.0,0.0,0.0,0.0,0.0,0.0,0.0,0.0,0.0,0.0,0.0,0.0,0.0,0.0,0.0,0.0,0.0,0.0,0.0,0.0,0.0,0.0,0.0,0.0,0.0,0.0,0.0,0.0,0.0,0.0,0.0,0.0,0.0,0.0,0.0,0.0,0.0,0.0,0.0,0.0,0.0,0.0,0.0,0.0,0.0,0.0,0.0,0.0,0.0,0.0,0.0,0.0,0.0,0.0,0.0,0.0,0.0,0.0,0.0,0.0,0.0,0.0,0.0,0.0,0.0,0.0,0.0,0.0,0.0,0.0,0.0,0.0,0.0,0.0,0.0,0.0,0.0
1.0,0.7891891598701477,0.3054054081439972,0.0,0.1918918937444687,0.3054054081439972,0.3621621727943421,0.3567567467689514,0.3972972929477692,0.39459457993507385,0.41351351141929626,0.4243243336677551,0.4594594538211823,0.46756756305694575,0.5081080794334412,0.5162162184715271,0.5621621608734131,0.5837838053703308,0.6189188957214355,0.6189188957214355,0.6459459662437439,0.6324324607849121,0.6405405402183533,0.6081081032752991,0.5891891717910768,0.5270270109176636,0.5054054260253905,0.4621621668338776,0.4486486613750458,0.4054054021835327,0.41351351141929626,0.3891891837120056,0.39459457993507385,0.37297296524047846,0.3891891837120056,0.3702702820301056,0.39189189672470087,0.3837837874889374,0.39459457993507385,0.3891891837120056,0.40270268917083746,0.4162162244319916,0.44594594836235046,0.42972972989082336,0.4162162244319916,0.39459457993507385,0.4000000059604645,0.39459457993507385,0.39189189672470087,0.37297296524047846,0.3756756782531738,0.36756756901741033,0.38648650050163275,0.3702702820301056,0.38108107447624207,0.36486485600471497,0.38648650050163275,0.3756756782531738,0.38648650050163275,0.37297296524047846,0.3891891837120056,0.36756756901741033,0.37837839126586914,0.48648649454116816,0.7216216325759887,0.9216216206550598,0.8486486673355103,0.49729728698730474,0.07837837934494017,0.07027027010917664,0.2216216176748276,0.3243243098258972,0.38108107447624207,0.3756756782531738,0.4000000059604645,0.3972972929477692,0.4243243336677551,0.4351351261138916,0.4486486613750458,0.0,0.0,0.0,0.0,0.0,0.0,0.0,0.0,0.0,0.0,0.0,0.0,0.0,0.0,0.0,0.0,0.0,0.0,0.0,0.0,0.0,0.0,0.0,0.0,0.0,0.0,0.0,0.0,0.0,0.0,0.0,0.0,0.0,0.0,0.0,0.0,0.0,0.0,0.0,0.0,0.0,0.0,0.0,0.0,0.0,0.0,0.0,0.0,0.0,0.0,0.0,0.0,0.0,0.0,0.0,0.0,0.0,0.0,0.0,0.0,0.0,0.0,0.0,0.0,0.0,0.0,0.0,0.0,0.0,0.0,0.0,0.0,0.0,0.0,0.0,0.0,0.0,0.0,0.0,0.0,0.0,0.0,0.0,0.0,0.0,0.0,0.0,0.0,0.0,0.0,0.0,0.0,0.0,0.0,0.0,0.0,0.0,0.0,0.0,0.0,0.0,0.0,0.0,0.0,0.0,0.0,0.0,0.0,0.0,0.0
1.0,0.9660714268684387,0.6803571581840515,0.4375,0.4482142925262451,0.40714284777641296,0.3464285731315613,0.2928571403026581,0.23035714030265808,0.18392856419086456,0.15535713732242584,0.13035714626312256,0.12678571045398712,0.1160714253783226,0.11249999701976776,0.09464285522699357,0.1071428582072258,0.0964285731315613,0.09107142686843872,0.08035714179277421,0.0714285746216774,0.0732142850756645,0.0625,0.04642857238650321,0.03214285895228386,0.01785714365541935,0.01607142947614193,0.007142857182770968,0.007142857182770968,0.0,0.0053571430034935474,0.010714286006987093,0.028571428731083866,0.05892857164144516,0.09107142686843872,0.13035714626312256,0.15357142686843872,0.16607142984867096,0.1875,0.18214285373687744,0.1964285671710968,0.18392856419086456,0.19285714626312253,0.19464285671710968,0.1964285671710968,0.19107143580913544,0.18928571045398712,0.18214285373687744,0.19285714626312253,0.18035714328289032,0.18571428954601288,0.18035714328289032,0.1875,0.1875,0.18571428954601288,0.18571428954601288,0.1875,0.18214285373687744,0.18928571045398712,0.18392856419086456,0.19464285671710968,0.18571428954601288,0.18571428954601288,0.18571428954601288,0.18392856419086456,0.17678570747375488,0.19285714626312253,0.18392856419086456,0.18035714328289032,0.1875,0.18392856419086456,0.18392856419086456,0.18571428954601288,0.18035714328289032,0.19285714626312253,0.1875,0.18928571045398712,0.19464285671710968,0.18571428954601288,0.19464285671710968,0.20178571343421936,0.20000000298023224,0.21071428060531616,0.20000000298023224,0.20000000298023224,0.18928571045398712,0.19464285671710968,0.19464285671710968,0.18035714328289032,0.1785714328289032,0.18035714328289032,0.17142857611179352,0.17499999701976776,0.18392856419086456,0.18928571045398712,0.19464285671710968,0.20357142388820648,0.19821429252624512,0.19285714626312253,0.3017857074737549,0.4214285612106323,0.5857142806053162,0.824999988079071,0.9857142567634583,0.9571428298950195,0.6482142806053162,0.42500001192092896,0.4178571403026581,0.36250001192092896,0.3178571462631225,0.28214284777641296,0.23749999701976776,0.1964285671710968,0.15357142686843872,0.1339285671710968,0.0,0.0,0.0,0.0,0.0,0.0,0.0,0.0,0.0,0.0,0.0,0.0,0.0,0.0,0.0,0.0,0.0,0.0,0.0,0.0,0.0,0.0,0.0,0.0,0.0,0.0,0.0,0.0,0.0,0.0,0.0,0.0,0.0,0.0,0.0,0.0,0.0,0.0,0.0,0.0,0.0,0.0,0.0,0.0,0.0,0.0,0.0,0.0,0.0,0.0,0.0,0.0,0.0,0.0,0.0,0.0,0.0,0.0,0.0,0.0,0.0,0.0,0.0,0.0,0.0,0.0,0.0,0.0,0.0,0.0,0.0,0.0,0.0,0.0
1.0,0.5600000023841858,0.07500000298023222,0.18500000238418576,0.21999999880790713,0.20499999821186063,0.2150000035762787,0.2450000047683716,0.25,0.2450000047683716,0.2450000047683716,0.2549999952316284,0.25999999046325684,0.25,0.26499998569488525,0.27000001072883606,0.2800000011920929,0.27000001072883606,0.27000001072883606,0.28999999165534973,0.2800000011920929,0.2750000059604645,0.28999999165534973,0.3000000119209289,0.3000000119209289,0.28499999642372126,0.3050000071525574,0.28999999165534973,0.27000001072883606,0.27000001072883606,0.239999994635582,0.23000000417232516,0.22499999403953552,0.20499999821186063,0.20999999344348907,0.20499999821186063,0.2150000035762787,0.20000000298023224,0.21999999880790713,0.19499999284744263,0.20499999821186063,0.18500000238418576,0.19499999284744263,0.18500000238418576,0.2150000035762787,0.2150000035762787,0.22499999403953552,0.20499999821186063,0.2150000035762787,0.2150000035762787,0.2450000047683716,0.20999999344348907,0.21999999880790713,0.20999999344348907,0.22499999403953552,0.20499999821186063,0.2150000035762787,0.2150000035762787,0.2150000035762787,0.19499999284744263,0.18500000238418576,0.1899999976158142,0.18500000238418576,0.17499999701976776,0.18500000238418576,0.20000000298023224,0.17499999701976776,0.1599999964237213,0.17499999701976776,0.15000000596046448,0.18000000715255737,0.17000000178813934,0.17499999701976776,0.16500000655651093,0.18500000238418576,0.17000000178813934,0.17000000178813934,0.1599999964237213,0.1899999976158142,0.20499999821186063,0.20999999344348907,0.22499999403953552,0.239999994635582,0.23000000417232516,0.3050000071525574,0.2549999952316284,0.21999999880790713,0.20999999344348907,0.17000000178813934,0.11500000208616255,0.15500000119209287,0.125,0.14000000059604645,0.1599999964237213,0.16500000655651093,0.15000000596046448,0.05000000074505805,0.025000000372529026,0.5600000023841858,0.75,0.0,0.05000000074505805,0.20499999821186063,0.1599999964237213,0.17499999701976776,0.17499999701976776,0.1899999976158142,0.18000000715255737,0.19499999284744263,0.1599999964237213,0.1899999976158142,0.17499999701976776,0.18000000715255737,0.18500000238418576,0.18000000715255737,0.17000000178813934,0.17499999701976776,0.17000000178813934,0.20000000298023224,0.0,0.0,0.0,0.0,0.0,0.0,0.0,0.0,0.0,0.0,0.0,0.0,0.0,0.0,0.0,0.0,0.0,0.0,0.0,0.0,0.0,0.0,0.0,0.0,0.0,0.0,0.0,0.0,0.0,0.0,0.0,0.0,0.0,0.0,0.0,0.0,0.0,0.0,0.0,0.0,0.0,0.0,0.0,0.0,0.0,0.0,0.0,0.0,0.0,0.0,0.0,0.0,0.0,0.0,0.0,0.0,0.0,0.0,0.0,0.0,0.0,0.0,0.0,0.0,0.0,0.0,0.0,0.0,0.0,0.0
0.9763663411140442,0.877400279045105,0.31019201874732966,0.05169866979122162,0.2865583598613739,0.336779922246933,0.3441654443740845,0.35450518131256104,0.35007384419441223,0.35007384419441223,0.35450518131256104,0.36189070343971247,0.3663220107555389,0.3663220107555389,0.3663220107555389,0.3766617476940155,0.38404726982116694,0.38404726982116694,0.38700148463249207,0.3943870067596436,0.40029540657997126,0.4091580510139465,0.41063514351844793,0.4209748804569244,0.4283604025840759,0.43279173970222473,0.4372230470180512,0.446085661649704,0.4534711837768554,0.446085661649704,0.4534711837768554,0.4579025208950042,0.4682422578334808,0.4711964428424835,0.4756277799606323,0.4815361797809601,0.4682422578334808,0.45199409127235407,0.4239290952682495,0.4121122658252716,0.3943870067596436,0.3796159625053406,0.3677991032600402,0.3648449182510376,0.3648449182510376,0.35450518131256104,0.35745936632156367,0.36189070343971247,0.3648449182510376,0.36336779594421387,0.36189070343971247,0.37223044037818903,0.3796159625053406,0.3781388401985168,0.3825701773166656,0.38995569944381714,0.3914327919483185,0.38995569944381714,0.38995569944381714,0.3943870067596436,0.3943870067596436,0.38700148463249207,0.3796159625053406,0.3810930550098419,0.3781388401985168,0.3751846253871918,0.369276225566864,0.3663220107555389,0.37075331807136536,0.3648449182510376,0.35893648862838745,0.3559822738170624,0.3559822738170624,0.351550966501236,0.3485967516899109,0.35450518131256104,0.3559822738170624,0.35450518131256104,0.34711965918540955,0.351550966501236,0.35450518131256104,0.35007384419441223,0.3485967516899109,0.35450518131256104,0.3559822738170624,0.351550966501236,0.3530280590057373,0.3648449182510376,0.3737075328826904,0.3751846253871918,0.38552436232566833,0.40177252888679504,0.3943870067596436,0.3781388401985168,0.37223044037818903,0.3663220107555389,0.3530280590057373,0.351550966501236,0.3559822738170624,0.369276225566864,0.40472674369812006,0.5347119569778441,0.8463810682296754,1.0,0.5494830012321472,0.0,0.20384047925472257,0.3338257074356079,0.336779922246933,0.33530279994010925,0.3293944001197815,0.3338257074356079,0.34268832206726074,0.34711965918540955,0.3441654443740845,0.351550966501236,0.36336779594421387,0.36336779594421387,0.3663220107555389,0.369276225566864,0.3766617476940155,0.3810930550098419,0.3825701773166656,0.0,0.0,0.0,0.0,0.0,0.0,0.0,0.0,0.0,0.0,0.0,0.0,0.0,0.0,0.0,0.0,0.0,0.0,0.0,0.0,0.0,0.0,0.0,0.0,0.0,0.0,0.0,0.0,0.0,0.0,0.0,0.0,0.0,0.0,0.0,0.0,0.0,0.0,0.0,0.0,0.0,0.0,0.0,0.0,0.0,0.0,0.0,0.0,0.0,0.0,0.0,0.0,0.0,0.0,0.0,0.0,0.0,0.0,0.0,0.0,0.0,0.0,0.0,0.0,0.0,0.0
0.9136363863945008,0.8636363744735717,0.6499999761581421,0.43181818723678583,0.26363635063171387,0.16363635659217834,0.09090909361839294,0.09545454382896423,0.12272727489471436,0.13181817531585693,0.10909090936183928,0.10909090936183928,0.13181817531585693,0.145454540848732,0.12727272510528564,0.1363636404275894,0.15000000596046448,0.16363635659217834,0.15000000596046448,0.15000000596046448,0.16818182170391083,0.1772727221250534,0.16363635659217834,0.15909090638160703,0.1818181872367859,0.19090908765792847,0.1818181872367859,0.19090908765792847,0.20454545319080353,0.2090909034013748,0.22272726893424988,0.21363636851310727,0.23181818425655365,0.23181818425655365,0.2090909034013748,0.19545455276966092,0.1863636374473572,0.1772727221250534,0.15000000596046448,0.1045454517006874,0.11363636702299118,0.09545454382896423,0.07272727042436598,0.05454545468091965,0.07727272808551788,0.07727272808551788,0.05454545468091965,0.05454545468091965,0.06363636255264282,0.08181817829608917,0.06363636255264282,0.05454545468091965,0.05454545468091965,0.059090908616781235,0.04545454680919647,0.036363635212183,0.036363635212183,0.036363635212183,0.013636363670229912,0.018181817606091496,0.018181817606091496,0.027272727340459824,0.004545454401522875,0.004545454401522875,0.009090908803045748,0.027272727340459824,0.0,0.004545454401522875,0.013636363670229912,0.009090908803045748,0.009090908803045748,0.004545454401522875,0.02272727340459824,0.04545454680919647,0.027272727340459824,0.018181817606091496,0.040909089148044586,0.05000000074505805,0.027272727340459824,0.036363635212183,0.05454545468091965,0.05454545468091965,0.04545454680919647,0.040909089148044586,0.059090908616781235,0.059090908616781235,0.059090908616781235,0.05454545468091965,0.059090908616781235,0.06363636255264282,0.05454545468091965,0.04545454680919647,0.06818182021379471,0.06363636255264282,0.07727272808551788,0.09090909361839294,0.1409090906381607,0.1409090906381607,0.1363636404275894,0.13181817531585693,0.15454545617103577,0.1409090906381607,0.11818181723356246,0.09090909361839294,0.11818181723356246,0.09545454382896423,0.059090908616781235,0.059090908616781235,0.07727272808551788,0.09090909361839294,0.08636363595724106,0.10000000149011612,0.1772727221250534,0.38636362552642817,0.6499999761581421,0.8681818246841431,1.0,1.0,0.7681818008422852,0.48181816935539246,0.25,0.11363636702299118,0.10000000149011612,0.10909090936183928,0.11363636702299118,0.1363636404275894,0.145454540848732,0.15000000596046448,0.15909090638160703,0.16818182170391083,0.16363635659217834,0.15909090638160703,0.19545455276966092,0.20000000298023224,0.1772727221250534,0.1863636374473572,0.2090909034013748,0.21818181872367856,0.2090909034013748,0.20000000298023224,0.0,0.0,0.0,0.0,0.0,0.0,0.0,0.0,0.0,0.0,0.0,0.0,0.0,0.0,0.0,0.0,0.0,0.0,0.0,0.0,0.0,0.0,0.0,0.0,0.0,0.0,0.0,0.0,0.0,0.0,0.0,0.0,0.0,0.0,0.0,0.0,0.0,0.0,0.0,0.0,0.0,0.0,0.0,0.0,0.0,0.0,0.0,0.0,0.0
0.8608414530754089,0.7508090734481812,0.33656957745552063,0.0,0.07119741290807724,0.13915857672691345,0.20711974799633023,0.23948219418525693,0.23948219418525693,0.242718443274498,0.2556634247303009,0.24919094145298004,0.23948219418525693,0.23300971090793607,0.252427190542221,0.23300971090793607,0.20388349890708923,0.2200647294521332,0.23300971090793607,0.2200647294521332,0.21035598218441007,0.20388349890708923,0.21682848036289212,0.20388349890708923,0.1877022683620453,0.18446601927280423,0.19093851745128632,0.1779935210943222,0.17152103781700134,0.18446601927280423,0.2006472498178482,0.20388349890708923,0.1877022683620453,0.23300971090793607,0.27184465527534485,0.30420711636543274,0.3430420756340027,0.3721682727336884,0.40776699781417847,0.40453073382377613,0.41423949599266047,0.4239482283592224,0.4368931949138641,0.42071196436882013,0.4110032320022583,0.40453073382377613,0.4110032320022583,0.40453073382377613,0.3980582654476166,0.39158576726913447,0.4012944996356964,0.3980582654476166,0.38834950327873224,0.39158576726913447,0.40776699781417847,0.40453073382377613,0.39158576726913447,0.3948220014572144,0.41423949599266047,0.40776699781417847,0.40776699781417847,0.42071196436882013,0.4595469236373901,0.4563106894493103,0.44336569309234614,0.44983819127082814,0.4983818829059601,0.5016181468963623,0.4822006523609161,0.469255656003952,0.47249191999435425,0.446601927280426,0.4110032320022583,0.39158576726913447,0.3948220014572144,0.3948220014572144,0.38511326909065247,0.3948220014572144,0.3948220014572144,0.3948220014572144,0.3948220014572144,0.4336569607257843,0.5695793032646179,0.8122977614402771,1.0,0.8543689250946046,0.5663430690765381,0.21682848036289212,0.1326860785484314,0.21359223127365112,0.268608421087265,0.3203883469104767,0.32686084508895874,0.3333333432674408,0.35922330617904663,0.33980581164360046,0.3333333432674408,0.3333333432674408,0.34627830982208246,0.3333333432674408,0.3203883469104767,0.0,0.0,0.0,0.0,0.0,0.0,0.0,0.0,0.0,0.0,0.0,0.0,0.0,0.0,0.0,0.0,0.0,0.0,0.0,0.0,0.0,0.0,0.0,0.0,0.0,0.0,0.0,0.0,0.0,0.0,0.0,0.0,0.0,0.0,0.0,0.0,0.0,0.0,0.0,0.0,0.0,0.0,0.0,0.0,0.0,0.0,0.0,0.0,0.0,0.0,0.0,0.0,0.0,0.0,0.0,0.0,0.0,0.0,0.0,0.0,0.0,0.0,0.0,0.0,0.0,0.0,0.0,0.0,0.0,0.0,0.0,0.0,0.0,0.0,0.0,0.0,0.0,0.0,0.0,0.0,0.0,0.0,0.0,0.0,0.0,0.0,0.0,0.0
1.0,0.7850467562675475,0.1612149477005005,0.07009346038103104,0.21962617337703705,0.2640186846256256,0.2757009267807007,0.2780373692512512,0.2780373692512512,0.2757009267807007,0.3130841255187988,0.3037383258342743,0.3107476532459259,0.32009345293045044,0.322429895401001,0.3317756950855255,0.3457943797111511,0.35747662186622614,0.37149533629417414,0.3878504633903504,0.40654206275939936,0.415887862443924,0.4322429895401001,0.44626167416572565,0.4626168310642242,0.48130840063095087,0.4789719581604004,0.4859813153743744,0.4602803885936737,0.4439252316951752,0.42056074738502497,0.3878504633903504,0.36214953660964966,0.3387850522994995,0.3247663676738739,0.32710281014442444,0.32009345293045044,0.3247663676738739,0.32710281014442444,0.3177570104598999,0.3130841255187988,0.3247663676738739,0.3317756950855255,0.32710281014442444,0.3247663676738739,0.3107476532459259,0.322429895401001,0.30841121077537537,0.3130841255187988,0.3130841255187988,0.32710281014442444,0.33411213755607605,0.34112149477005005,0.34112149477005005,0.3387850522994995,0.329439252614975,0.3504672944545746,0.34813085198402405,0.3457943797111511,0.33411213755607605,0.3317756950855255,0.33411213755607605,0.34112149477005005,0.30841121077537537,0.3107476532459259,0.3014018833637237,0.2967289686203003,0.2897196114063263,0.2943925261497497,0.2967289686203003,0.2640186846256256,0.257009357213974,0.4252336323261261,0.7943925261497498,0.9742990732192992,0.45560747385025024,0.0,0.15887850522994995,0.24766355752944944,0.2780373692512512,0.2757009267807007,0.2827102839946747,0.2757009267807007,0.27336448431015015,0.29906541109085083,0.2897196114063263,0.3037383258342743,0.3037383258342743,0.3014018833637237,0.0,0.0,0.0,0.0,0.0,0.0,0.0,0.0,0.0,0.0,0.0,0.0,0.0,0.0,0.0,0.0,0.0,0.0,0.0,0.0,0.0,0.0,0.0,0.0,0.0,0.0,0.0,0.0,0.0,0.0,0.0,0.0,0.0,0.0,0.0,0.0,0.0,0.0,0.0,0.0,0.0,0.0,0.0,0.0,0.0,0.0,0.0,0.0,0.0,0.0,0.0,0.0,0.0,0.0,0.0,0.0,0.0,0.0,0.0,0.0,0.0,0.0,0.0,0.0,0.0,0.0,0.0,0.0,0.0,0.0,0.0,0.0,0.0,0.0,0.0,0.0,0.0,0.0,0.0,0.0,0.0,0.0,0.0,0.0,0.0,0.0,0.0,0.0,0.0,0.0,0.0,0.0,0.0,0.0,0.0,0.0,0.0,0.0,0.0,0.0
1.0,0.9820627570152282,0.372197300195694,0.0044843051582574844,0.0044843051582574844,0.05381165817379952,0.02690582908689976,0.0044843051582574844,0.008968610316514969,0.0,0.008968610316514969,0.0044843051582574844,0.013452914543449879,0.008968610316514969,0.022421523928642273,0.022421523928642273,0.035874441266059875,0.02690582908689976,0.04035874456167221,0.04484304785728455,0.05381165817379952,0.04932735487818717,0.07174888253211975,0.06726457178592682,0.10313901305198668,0.13901345431804657,0.16143497824668884,0.18834081292152405,0.23766815662384036,0.23766815662384036,0.2421524673700333,0.20627802610397336,0.20179371535778043,0.20179371535778043,0.2556053698062897,0.26457399129867554,0.2690582871437073,0.25112107396125793,0.23318386077880857,0.19730941951274872,0.16591928899288175,0.12556053698062897,0.11659193038940428,0.08071748912334442,0.09417040646076201,0.06726457178592682,0.08968609571456909,0.058295965194702155,0.08071748912334442,0.058295965194702155,0.08071748912334442,0.06278026849031448,0.08520179241895676,0.06726457178592682,0.08968609571456909,0.07174888253211975,0.09417040646076201,0.08968609571456909,0.12107623368501665,0.13901345431804657,0.2959641218185425,0.4125560522079468,0.5336322784423828,0.41704034805297846,0.44394618272781367,0.4887892305850983,0.5470852255821228,0.5246636867523192,0.4887892305850983,0.3094170391559601,0.21973094344139096,0.12556053698062897,0.08968609571456909,0.07174888253211975,0.08071748912334442,0.04035874456167221,0.04484304785728455,0.02690582908689976,0.04932735487818717,0.03139013424515724,0.05381165817379952,0.035874441266059875,0.06278026849031448,0.05381165817379952,0.08968609571456909,0.07623318582773209,0.11659193038940428,0.10313901305198668,0.13452914357185364,0.13901345431804657,0.16591928899288175,0.1569506675004959,0.18834081292152405,0.19282510876655576,0.2421524673700333,0.23318386077880857,0.27802690863609314,0.286995530128479,0.3228699564933777,0.0,0.0,0.0,0.0,0.0,0.0,0.0,0.0,0.0,0.0,0.0,0.0,0.0,0.0,0.0,0.0,0.0,0.0,0.0,0.0,0.0,0.0,0.0,0.0,0.0,0.0,0.0,0.0,0.0,0.0,0.0,0.0,0.0,0.0,0.0,0.0,0.0,0.0,0.0,0.0,0.0,0.0,0.0,0.0,0.0,0.0,0.0,0.0,0.0,0.0,0.0,0.0,0.0,0.0,0.0,0.0,0.0,0.0,0.0,0.0,0.0,0.0,0.0,0.0,0.0,0.0,0.0,0.0,0.0,0.0,0.0,0.0,0.0,0.0,0.0,0.0,0.0,0.0,0.0,0.0,0.0,0.0,0.0,0.0,0.0,0.0,0.0,0.0,0.0,0.0
1.0,0.9185185432434082,0.6518518328666687,0.20740740001201627,0.11851851642131804,0.17283950746059415,0.13827160000801086,0.06419753283262253,0.05185185000300408,0.054320987313985825,0.07407407462596893,0.07407407462596893,0.06666667014360428,0.06172839552164078,0.06913580000400543,0.06172839552164078,0.054320987313985825,0.06172839552164078,0.06913580000400543,0.06419753283262253,0.05185185000300408,0.059259258210659034,0.07407407462596893,0.06666667014360428,0.06913580000400543,0.07407407462596893,0.09382715821266174,0.08888889104127885,0.10370370000600813,0.10370370000600813,0.13333334028720856,0.1308642029762268,0.1358024626970291,0.14320987462997437,0.16543209552764893,0.1506172865629196,0.14814814925193787,0.1506172865629196,0.16543209552764893,0.1407407373189926,0.1407407373189926,0.13827160000801086,0.14814814925193787,0.13333334028720856,0.1259259283542633,0.11358024924993516,0.11851851642131804,0.0962962955236435,0.08395061641931532,0.08641975373029709,0.08641975373029709,0.10370370000600813,0.09876543283462524,0.09876543283462524,0.1209876537322998,0.10864197462797164,0.10864197462797164,0.10370370000600813,0.12839506566524503,0.1160493791103363,0.14567901194095612,0.14320987462997437,0.19012345373630524,0.20000000298023224,0.2222222238779068,0.21975308656692505,0.2419753074645996,0.21728394925594327,0.1975308656692505,0.1851851791143417,0.16543209552764893,0.12345679104328156,0.10864197462797164,0.10370370000600813,0.10864197462797164,0.10370370000600813,0.08888889104127885,0.08395061641931532,0.059259258210659034,0.0,0.13333334028720856,0.4444444477558136,0.7407407164573668,0.9530864357948304,0.9950617551803587,0.9037036895751952,0.6123456954956055,0.18024691939353943,0.12839506566524503,0.1827160567045212,0.13333334028720856,0.07160493731498718,0.06172839552164078,0.06172839552164078,0.08148147910833359,0.07901234924793243,0.07160493731498718,0.07160493731498718,0.07654321193695068,0.06666667014360428,0.06913580000400543,0.0,0.0,0.0,0.0,0.0,0.0,0.0,0.0,0.0,0.0,0.0,0.0,0.0,0.0,0.0,0.0,0.0,0.0,0.0,0.0,0.0,0.0,0.0,0.0,0.0,0.0,0.0,0.0,0.0,0.0,0.0,0.0,0.0,0.0,0.0,0.0,0.0,0.0,0.0,0.0,0.0,0.0,0.0,0.0,0.0,0.0,0.0,0.0,0.0,0.0,0.0,0.0,0.0,0.0,0.0,0.0,0.0,0.0,0.0,0.0,0.0,0.0,0.0,0.0,0.0,0.0,0.0,0.0,0.0,0.0,0.0,0.0,0.0,0.0,0.0,0.0,0.0,0.0,0.0,0.0,0.0,0.0,0.0,0.0,0.0,0.0,0.0,0.0
0.9042357206344604,1.0,0.6243094205856323,0.15469613671302795,0.04972375556826592,0.034990791231393814,0.023941067978739735,0.01841620542109013,0.05524861812591553,0.15285451710224152,0.3186003565788269,0.4309392273426056,0.4364641010761261,0.440147340297699,0.46777164936065674,0.469613254070282,0.4622467756271362,0.4475138187408447,0.4511970579624176,0.44935542345047,0.4364641010761261,0.425414353609085,0.4162062704563141,0.405156522989273,0.3922652006149292,0.3830570876598358,0.38121548295021057,0.3775322139263153,0.36095765233039856,0.35911601781845087,0.3720073699951172,0.38489872217178334,0.3885819613933563,0.39963167905807495,0.43462246656417847,0.4548802971839905,0.460405170917511,0.4769797325134277,0.4990791976451874,0.5119705200195312,0.5119705200195312,0.5138121843338013,0.5174953937530518,0.5174953937530518,0.5230202674865723,0.5174953937530518,0.5285451412200928,0.5156537890434265,0.500920832157135,0.5027624368667603,0.5138121843338013,0.5119705200195312,0.5046040415763855,0.4953959584236145,0.500920832157135,0.5027624368667603,0.4953959584236145,0.4917127192020416,0.500920832157135,0.5064456462860107,0.4953959584236145,0.4880294799804688,0.5046040415763855,0.5156537890434265,0.5046040415763855,0.4990791976451874,0.5046040415763855,0.5046040415763855,0.510128915309906,0.5082873106002808,0.5138121843338013,0.530386745929718,0.5267034769058228,0.539594829082489,0.5543277859687805,0.5690608024597168,0.591160237789154,0.5837937593460083,0.5653775334358215,0.5690608024597168,0.589318573474884,0.5745856165885925,0.5359116196632385,0.519336998462677,0.489871084690094,0.48434621095657354,0.489871084690094,0.4917127192020416,0.4769797325134277,0.4751381278038025,0.489871084690094,0.4880294799804688,0.469613254070282,0.47882136702537537,0.4917127192020416,0.4825046062469482,0.4825046062469482,0.6243094205856323,0.7918968796730042,0.801104962825775,0.9023941159248352,0.9852670431137086,0.5248618721961975,0.1031307578086853,0.01841620542109013,0.0,0.012891344726085663,0.025782689452171326,0.08471454679965973,0.2357274442911148,0.3830570876598358,0.43462246656417847,0.4364641010761261,0.4511970579624176,0.47329649329185486,0.4769797325134277,0.469613254070282,0.4530386626720429,0.4530386626720429,0.44935542345047,0.0,0.0,0.0,0.0,0.0,0.0,0.0,0.0,0.0,0.0,0.0,0.0,0.0,0.0,0.0,0.0,0.0,0.0,0.0,0.0,0.0,0.0,0.0,0.0,0.0,0.0,0.0,0.0,0.0,0.0,0.0,0.0,0.0,0.0,0.0,0.0,0.0,0.0,0.0,0.0,0.0,0.0,0.0,0.0,0.0,0.0,0.0,0.0,0.0,0.0,0.0,0.0,0.0,0.0,0.0,0.0,0.0,0.0,0.0,0.0,0.0,0.0,0.0,0.0,0.0,0.0,0.0,0.0,0.0
0.9152542352676392,0.9237288236618042,0.5381355881690979,0.2076271176338196,0.14406779408454895,0.16101695597171783,0.14406779408454895,0.1186440661549568,0.10169491171836852,0.08474576473236085,0.06355932354927063,0.055084746330976486,0.055084746330976486,0.050847455859184265,0.050847455859184265,0.07203389704227448,0.05932203307747841,0.06779661029577255,0.055084746330976486,0.06355932354927063,0.06355932354927063,0.06779661029577255,0.06779661029577255,0.10169491171836852,0.10169491171836852,0.1186440661549568,0.13135592639446259,0.1525423675775528,0.15677966177463531,0.173728808760643,0.18220339715480804,0.1949152499437332,0.20338982343673703,0.21186441183090207,0.1906779706478119,0.18644067645072937,0.15677966177463531,0.1355932205915451,0.12288135290145874,0.1186440661549568,0.08898305147886275,0.09322033822536467,0.09322033822536467,0.09322033822536467,0.07627118378877638,0.08474576473236085,0.08050847798585892,0.08474576473236085,0.06355932354927063,0.06355932354927063,0.08474576473236085,0.1186440661549568,0.173728808760643,0.347457617521286,0.6313559412956238,0.8728813529014587,1.0,0.8389830589294434,0.4194915294647217,0.22033898532390597,0.16949152946472168,0.16101695597171783,0.11016949266195296,0.08898305147886275,0.06355932354927063,0.055084746330976486,0.03389830514788628,0.029661016538739204,0.0,0.008474576286971569,0.0,0.0,0.0,0.0,0.0,0.0,0.0,0.0,0.0,0.0,0.0,0.0,0.0,0.0,0.0,0.0,0.0,0.0,0.0,0.0,0.0,0.0,0.0,0.0,0.0,0.0,0.0,0.0,0.0,0.0,0.0,0.0,0.0,0.0,0.0,0.0,0.0,0.0,0.0,0.0,0.0,0.0,0.0,0.0,0.0,0.0,0.0,0.0,0.0,0.0,0.0,0.0,0.0,0.0,0.0,0.0,0.0,0.0,0.0,0.0,0.0,0.0,0.0,0.0,0.0,0.0,0.0,0.0,0.0,0.0,0.0,0.0,0.0,0.0,0.0,0.0,0.0,0.0,0.0,0.0,0.0,0.0,0.0,0.0,0.0,0.0,0.0,0.0,0.0,0.0,0.0,0.0,0.0,0.0,0.0,0.0,0.0,0.0,0.0,0.0,0.0,0.0,0.0,0.0,0.0,0.0,0.0,0.0,0.0,0.0,0.0,0.0,0.0,0.0,0.0,0.0,0.0,0.0,0.0
0.841269850730896,0.7314814925193786,0.4034391641616821,0.10052909702062605,0.0,0.08068782836198807,0.09656084328889847,0.06481481343507767,0.05158730223774909,0.05952380970120429,0.048941798508167274,0.038359787315130234,0.038359787315130234,0.034391533583402634,0.033068783581256866,0.034391533583402634,0.030423279851675037,0.048941798508167274,0.054232805967330926,0.062169313430786126,0.08333333581686019,0.10052909702062605,0.12830688059329987,0.1626984179019928,0.1825396865606308,0.22354497015476224,0.26058200001716614,0.275132268667221,0.2989417910575866,0.32671958208084106,0.34391534328460693,0.35185185074806213,0.35185185074806213,0.34788361191749567,0.33994710445404047,0.32275131344795227,0.3095238208770752,0.3055555522441864,0.2830687761306762,0.26058200001716614,0.24074074625968933,0.22354497015476224,0.21296297013759613,0.20370370149612424,0.1891534328460693,0.19576719403266904,0.19973544776439664,0.1944444477558136,0.2142857164144516,0.2341269850730896,0.2420634925365448,0.25264549255371094,0.2579365074634552,0.25264549255371094,0.21560846269130704,0.1693121641874313,0.1574074029922485,0.1693121641874313,0.1666666716337204,0.16402116417884827,0.1693121641874313,0.1666666716337204,0.20767195522785184,0.30423280596733093,0.41402116417884827,0.550264537334442,0.7010582089424133,0.8346560597419738,0.9656084775924682,1.0,0.8835979104042053,0.579365074634552,0.22883598506450653,0.07275132089853287,0.10846561193466187,0.09259258955717087,0.062169313430786126,0.058201059699058526,0.052910052239894874,0.041005291044712074,0.034391533583402634,0.029100529849529263,0.018518518656492237,0.0,0.0,0.0,0.0,0.0,0.0,0.0,0.0,0.0,0.0,0.0,0.0,0.0,0.0,0.0,0.0,0.0,0.0,0.0,0.0,0.0,0.0,0.0,0.0,0.0,0.0,0.0,0.0,0.0,0.0,0.0,0.0,0.0,0.0,0.0,0.0,0.0,0.0,0.0,0.0,0.0,0.0,0.0,0.0,0.0,0.0,0.0,0.0,0.0,0.0,0.0,0.0,0.0,0.0,0.0,0.0,0.0,0.0,0.0,0.0,0.0,0.0,0.0,0.0,0.0,0.0,0.0,0.0,0.0,0.0,0.0,0.0,0.0,0.0,0.0,0.0,0.0,0.0,0.0,0.0,0.0,0.0,0.0,0.0,0.0,0.0,0.0,0.0,0.0,0.0,0.0,0.0,0.0,0.0,0.0,0.0,0.0,0.0,0.0,0.0,0.0,0.0,0.0,0.0,0.0,0.0
